-1.54
-1.535
-1.51
-1.51
-1.495
-1.495
-1.485
-1.48
-1.48
-1.47
-1.465
-1.45
-1.43
-1.415
-1.405
-1.395
-1.39
-1.395
-1.395
-1.385
-1.385
-1.38
-1.39
-1.405
-1.405
-1.405
-1.4
-1.41
-1.425
-1.435
-1.45
-1.445
-1.45
-1.45
-1.46
-1.455
-1.45
-1.445
-1.435
-1.415
-1.425
-1.415
-1.42
-1.42
-1.405
-1.43
-1.435
-1.46
-1.475
-1.5
-1.52
-1.53
-1.53
-1.545
-1.545
-1.545
-1.56
-1.565
-1.575
-1.58
-1.59
-1.6
-1.59
-1.59
-1.59
-1.6
-1.6
-1.595
-1.59
-1.585
-1.585
-1.6
-1.59
-1.585
-1.575
-1.575
-1.575
-1.59
-1.6
-1.6
-1.59
-1.59
-1.58
-1.59
-1.595
-1.595
-1.595
-1.58
-1.58
-1.595
-1.605
-1.615
-1.595
-1.595
-1.59
-1.61
-1.615
-1.61
-1.61
-1.61
-1.615
-1.62
-1.62
-1.615
-1.615
-1.62
-1.61
-1.595
-1.58
-1.57
-1.56
-1.56
-1.56
-1.55
-1.54
-1.53
-1.525
-1.525
-1.53
-1.53
-1.53
-1.53
-1.51
-1.5
-1.495
-1.5
-1.52
-1.53
-1.55
-1.555
-1.565
-1.585
-1.59
-1.625
-1.635
-1.65
-1.65
-1.65
-1.655
-1.65
-1.65
-1.65
-1.645
-1.645
-1.645
-1.65
-1.655
-1.68
-1.68
-1.665
-1.655
-1.645
-1.63
-1.63
-1.63
-1.615
-1.555
-1.445
-1.29
-1.105
-0.88
-0.62
-0.365
-0.195
-0.24
-0.57
-1.105
-1.795
-2.315
-2.42
-2.23
-1.99
-1.815
-1.715
-1.68
-1.66
-1.63
-1.62
-1.615
-1.615
-1.61
-1.6
-1.595
-1.59
-1.59
-1.59
-1.58
-1.575
-1.575
-1.565
-1.56
-1.545
-1.53
-1.53
-1.545
-1.545
-1.545
-1.545
-1.53
-1.54
-1.53
-1.53
-1.54
-1.515
-1.505
-1.505
-1.495
-1.485
-1.47
-1.47
-1.465
-1.435
-1.42
-1.41
-1.405
-1.395
-1.38
-1.36
-1.375
-1.37
-1.38
-1.385
-1.37
-1.375
-1.375
-1.37
-1.37
-1.365
-1.385
-1.395
-1.41
-1.405
-1.405
-1.405
-1.405
-1.405
-1.405
-1.4
-1.4
-1.405
-1.4
-1.405
-1.405
-1.41
-1.42
-1.43
-1.43
-1.45
-1.475
-1.51
-1.53
-1.545
-1.545
-1.545
-1.54
-1.56
-1.575
-1.585
-1.59
-1.61
-1.595
-1.595
-1.595
-1.6
-1.625
-1.615
-1.61
-1.6
-1.58
-1.585
-1.585
-1.59
-1.59
-1.595
-1.595
-1.6
-1.59
-1.59
-1.58
-1.58
-1.59
-1.59
-1.58
-1.58
-1.58
-1.585
-1.59
-1.595
-1.59
-1.585
-1.58
-1.6
-1.61
-1.595
-1.58
-1.58
-1.6
-1.61
-1.615
-1.625
-1.63
-1.63
-1.63
-1.63
-1.63
-1.63
-1.645
-1.615
-1.59
-1.585
-1.575
-1.575
-1.56
-1.545
-1.54
-1.56
-1.56
-1.55
-1.54
-1.53
-1.53
-1.525
-1.51
-1.505
-1.51
-1.515
-1.52
-1.525
-1.525
-1.54
-1.56
-1.59
-1.625
-1.65
-1.645
-1.65
-1.66
-1.665
-1.665
-1.68
-1.68
-1.68
-1.68
-1.68
-1.67
-1.67
-1.655
-1.65
-1.665
-1.645
-1.645
-1.635
-1.635
-1.65
-1.635
-1.63
-1.575
-1.44
-1.235
-1.01
-0.74
-0.44
-0.17
-0.08
-0.29
-0.77
-1.45
-2.09
-2.37
-2.26
-2.02
-1.82
-1.71
-1.67
-1.66
-1.655
-1.65
-1.645
-1.625
-1.62
-1.61
-1.595
-1.59
-1.595
-1.6
-1.59
-1.585
-1.58
-1.58
-1.59
-1.59
-1.565
-1.56
-1.555
-1.54
-1.55
-1.53
-1.53
-1.53
-1.54
-1.54
-1.53
-1.53
-1.51
-1.495
-1.475
-1.465
-1.46
-1.455
-1.45
-1.45
-1.44
-1.42
-1.405
-1.39
-1.385
-1.38
-1.35
-1.34
-1.33
-1.35
-1.365
-1.375
-1.37
-1.36
-1.355
-1.35
-1.355
-1.36
-1.37
-1.375
-1.37
-1.37
-1.375
-1.365
-1.375
-1.37
-1.345
-1.36
-1.36
-1.375
-1.38
-1.39
-1.42
-1.44
-1.46
-1.48
-1.48
-1.49
-1.51
-1.53
-1.54
-1.54
-1.55
-1.56
-1.58
-1.59
-1.585
-1.585
-1.58
-1.58
-1.585
-1.59
-1.595
-1.59
-1.595
-1.6
-1.605
-1.61
-1.61
-1.61
-1.61
-1.6
-1.61
-1.6
-1.6
-1.595
-1.595
-1.6
-1.62
-1.61
-1.61
-1.595
-1.595
-1.615
-1.61
-1.615
-1.62
-1.615
-1.625
-1.625
-1.63
-1.62
-1.62
-1.625
-1.62
-1.615
-1.615
-1.615
-1.62
-1.62
-1.615
-1.61
-1.61
-1.62
-1.63
-1.625
-1.615
-1.615
-1.61
-1.59
-1.585
-1.56
-1.54
-1.535
-1.53
-1.545
-1.545
-1.545
-1.54
-1.54
-1.56
-1.53
-1.53
-1.52
-1.51
-1.495
-1.51
-1.51
-1.53
-1.53
-1.56
-1.58
-1.61
-1.62
-1.645
-1.65
-1.655
-1.66
-1.665
-1.665
-1.66
-1.66
-1.67
-1.66
-1.66
-1.66
-1.66
-1.655
-1.65
-1.645
-1.635
-1.645
-1.65
-1.63
-1.645
-1.65
-1.65
-1.585
-1.43
-1.155
-0.775
-0.335
0.09
0.365
0.31
-0.095
-0.76
-1.55
-2.105
-2.215
-2.055
-1.84
-1.72
-1.665
-1.66
-1.66
-1.665
-1.66
-1.645
-1.63
-1.62
-1.625
-1.63
-1.62
-1.61
-1.6
-1.61
-1.615
-1.63
-1.63
-1.615
-1.61
-1.62
-1.635
-1.63
-1.62
-1.615
-1.6
-1.61
-1.605
-1.585
-1.57
-1.55
-1.545
-1.545
-1.545
-1.54
-1.54
-1.53
-1.5
-1.51
-1.495
-1.485
-1.47
-1.45
-1.435
-1.43
-1.435
-1.43
-1.405
-1.41
-1.39
-1.375
-1.365
-1.355
-1.355
-1.36
-1.36
-1.355
-1.36
-1.37
-1.375
-1.375
-1.37
-1.36
-1.35
-1.36
-1.37
-1.375
-1.375
-1.375
-1.375
-1.39
-1.395
-1.405
-1.4
-1.405
-1.42
-1.445
-1.465
-1.48
-1.495
-1.53
-1.545
-1.56
-1.56
-1.565
-1.555
-1.565
-1.575
-1.58
-1.59
-1.59
-1.595
-1.6
-1.615
-1.62
-1.62
-1.62
-1.615
-1.625
-1.625
-1.625
-1.62
-1.625
-1.63
-1.635
-1.645
-1.645
-1.63
-1.635
-1.63
-1.635
-1.63
-1.62
-1.615
-1.61
-1.61
-1.61
-1.62
-1.625
-1.62
-1.63
-1.625
-1.625
-1.63
-1.63
-1.65
-1.66
-1.625
-1.62
-1.625
-1.645
-1.65
-1.645
-1.635
-1.635
-1.615
-1.62
-1.615
-1.595
-1.59
-1.565
-1.55
-1.545
-1.545
-1.54
-1.54
-1.54
-1.54
-1.545
-1.53
-1.53
-1.53
-1.53
-1.525
-1.525
-1.525
-1.53
-1.54
-1.555
-1.575
-1.6
-1.615
-1.63
-1.65
-1.65
-1.66
-1.665
-1.665
-1.685
-1.665
-1.67
-1.67
-1.68
-1.68
-1.68
-1.68
-1.68
-1.67
-1.67
-1.66
-1.65
-1.65
-1.655
-1.68
-1.69
-1.67
-1.575
-1.355
-1.045
-0.65
-0.21
0.2
0.44
0.415
0.06
-0.545
-1.315
-1.93
-2.16
-2.045
-1.85
-1.715
-1.68
-1.68
-1.695
-1.685
-1.67
-1.65
-1.645
-1.645
-1.635
-1.645
-1.635
-1.63
-1.645
-1.665
-1.65
-1.645
-1.625
-1.62
-1.625
-1.62
-1.62
-1.61
-1.6
-1.6
-1.61
-1.615
-1.62
-1.615
-1.6
-1.59
-1.58
-1.575
-1.575
-1.56
-1.555
-1.54
-1.525
-1.505
-1.495
-1.48
-1.475
-1.47
-1.455
-1.445
-1.42
-1.405
-1.405
-1.405
-1.415
-1.405
-1.41
-1.42
-1.42
-1.42
-1.405
-1.395
-1.42
-1.405
-1.41
-1.405
-1.375
-1.385
-1.375
-1.385
-1.405
-1.405
-1.425
-1.415
-1.42
-1.42
-1.425
-1.445
-1.465
-1.495
-1.505
-1.51
-1.515
-1.505
-1.53
-1.555
-1.575
-1.58
-1.59
-1.6
-1.62
-1.61
-1.615
-1.62
-1.63
-1.63
-1.625
-1.635
-1.645
-1.65
-1.64
-1.635
-1.635
-1.65
-1.65
-1.65
-1.635
-1.63
-1.65
-1.65
-1.65
-1.645
-1.645
-1.645
-1.635
-1.62
-1.62
-1.615
-1.63
-1.63
-1.645
-1.65
-1.66
-1.65
-1.65
-1.635
-1.62
-1.625
-1.635
-1.65
-1.665
-1.655
-1.65
-1.65
-1.645
-1.63
-1.625
-1.62
-1.625
-1.62
-1.605
-1.585
-1.56
-1.535
-1.54
-1.545
-1.56
-1.56
-1.565
-1.575
-1.585
-1.56
-1.56
-1.54
-1.53
-1.54
-1.53
-1.53
-1.545
-1.555
-1.565
-1.585
-1.595
-1.61
-1.635
-1.65
-1.655
-1.665
-1.68
-1.68
-1.695
-1.695
-1.685
-1.695
-1.7
-1.69
-1.68
-1.68
-1.68
-1.68
-1.68
-1.67
-1.665
-1.655
-1.65
-1.65
-1.63
-1.575
-1.47
-1.335
-1.175
-1.015
-0.835
-0.715
-0.71
-0.955
-1.425
-2.005
-2.375
-2.435
-2.255
-1.99
-1.8
-1.705
-1.665
-1.65
-1.65
-1.63
-1.62
-1.615
-1.615
-1.615
-1.615
-1.61
-1.615
-1.615
-1.615
-1.615
-1.62
-1.62
-1.615
-1.61
-1.595
-1.59
-1.59
-1.565
-1.575
-1.575
-1.565
-1.565
-1.545
-1.545
-1.54
-1.54
-1.52
-1.5
-1.48
-1.47
-1.465
-1.455
-1.465
-1.445
-1.435
-1.42
-1.405
-1.405
-1.405
-1.39
-1.38
-1.37
-1.365
-1.355
-1.345
-1.345
-1.355
-1.36
-1.35
-1.345
-1.36
-1.375
-1.37
-1.36
-1.36
-1.36
-1.37
-1.36
-1.36
-1.34
-1.32
-1.32
-1.315
-1.32
-1.335
-1.345
-1.35
-1.37
-1.39
-1.425
-1.46
-1.49
-1.495
-1.495
-1.53
-1.555
-1.58
-1.6
-1.63
-1.625
-1.625
-1.615
-1.61
-1.59
-1.59
-1.595
-1.61
-1.615
-1.615
-1.595
-1.59
-1.595
-1.625
-1.65
-1.65
-1.63
-1.615
-1.6
-1.59
-1.58
-1.59
-1.61
-1.62
-1.62
-1.625
-1.63
-1.625
-1.63
-1.635
-1.65
-1.65
-1.65
-1.63
-1.625
-1.62
-1.63
-1.625
-1.63
-1.635
-1.63
-1.645
-1.615
-1.595
-1.575
-1.565
-1.56
-1.56
-1.555
-1.55
-1.55
-1.545
-1.53
-1.54
-1.54
-1.54
-1.525
-1.505
-1.495
-1.505
-1.525
-1.55
-1.56
-1.56
-1.56
-1.575
-1.59
-1.615
-1.64
-1.645
-1.65
-1.655
-1.68
-1.68
-1.68
-1.675
-1.665
-1.665
-1.665
-1.67
-1.665
-1.65
-1.65
-1.66
-1.65
-1.66
-1.65
-1.635
-1.635
-1.62
-1.58
-1.475
-1.32
-1.165
-1.04
-0.925
-0.805
-0.715
-0.75
-1.0
-1.475
-2.07
-2.505
-2.61
-2.4
-2.12
-1.89
-1.75
-1.68
-1.645
-1.62
-1.615
-1.605
-1.6
-1.59
-1.585
-1.575
-1.565
-1.565
-1.575
-1.58
-1.575
-1.56
-1.56
-1.545
-1.56
-1.545
-1.54
-1.53
-1.53
-1.51
-1.52
-1.51
-1.525
-1.51
-1.505
-1.5
-1.49
-1.475
-1.465
-1.46
-1.46
-1.45
-1.435
-1.405
-1.395
-1.4
-1.405
-1.405
-1.385
-1.385
-1.375
-1.37
-1.375
-1.385
-1.385
-1.375
-1.375
-1.385
-1.405
-1.42
-1.43
-1.435
-1.445
-1.45
-1.45
-1.445
-1.435
-1.44
-1.445
-1.44
-1.43
-1.405
-1.415
-1.405
-1.395
-1.39
-1.395
-1.42
-1.435
-1.45
-1.47
-1.495
-1.51
-1.525
-1.545
-1.555
-1.565
-1.575
-1.56
-1.555
-1.55
-1.545
-1.565
-1.585
-1.59
-1.59
-1.575
-1.565
-1.565
-1.565
-1.575
-1.575
-1.57
-1.56
-1.56
-1.56
-1.565
-1.575
-1.565
-1.56
-1.555
-1.56
-1.575
-1.59
-1.565
-1.575
-1.565
-1.555
-1.565
-1.56
-1.575
-1.575
-1.575
-1.58
-1.59
-1.595
-1.61
-1.61
-1.605
-1.6
-1.595
-1.59
-1.585
-1.575
-1.56
-1.555
-1.545
-1.54
-1.53
-1.53
-1.53
-1.515
-1.5
-1.505
-1.505
-1.505
-1.495
-1.475
-1.475
-1.48
-1.49
-1.5
-1.5
-1.51
-1.515
-1.555
-1.56
-1.59
-1.595
-1.61
-1.625
-1.62
-1.625
-1.63
-1.645
-1.65
-1.645
-1.645
-1.63
-1.63
-1.63
-1.625
-1.625
-1.625
-1.635
-1.63
-1.62
-1.615
-1.615
-1.605
-1.56
-1.49
-1.37
-1.235
-1.105
-0.955
-0.775
-0.605
-0.5
-0.61
-0.975
-1.545
-2.135
-2.42
-2.335
-2.09
-1.85
-1.695
-1.63
-1.61
-1.585
-1.56
-1.58
-1.575
-1.575
-1.565
-1.56
-1.56
-1.545
-1.545
-1.54
-1.545
-1.56
-1.56
-1.56
-1.545
-1.54
-1.53
-1.535
-1.535
-1.53
-1.53
-1.53
-1.525
-1.515
-1.505
-1.495
-1.485
-1.475
-1.47
-1.46
-1.44
-1.435
-1.425
-1.41
-1.39
-1.385
-1.395
-1.39
-1.38
-1.365
-1.36
-1.36
-1.35
-1.335
-1.345
-1.355
-1.355
-1.345
-1.335
-1.35
-1.355
-1.37
-1.375
-1.375
-1.385
-1.39
-1.39
-1.395
-1.39
-1.385
-1.375
-1.375
-1.375
-1.385
-1.405
-1.4
-1.405
-1.415
-1.43
-1.44
-1.45
-1.47
-1.495
-1.52
-1.53
-1.54
-1.545
-1.54
-1.54
-1.56
-1.58
-1.575
-1.575
-1.56
-1.56
-1.565
-1.555
-1.565
-1.565
-1.56
-1.575
-1.56
-1.565
-1.585
-1.585
-1.57
-1.56
-1.565
-1.56
-1.575
-1.565
-1.575
-1.575
-1.575
-1.575
-1.56
-1.56
-1.555
-1.56
-1.575
-1.575
-1.575
-1.575
-1.565
-1.565
-1.575
-1.59
-1.6
-1.595
-1.59
-1.58
-1.585
-1.58
-1.575
-1.56
-1.545
-1.52
-1.505
-1.495
-1.505
-1.53
-1.53
-1.555
-1.53
-1.52
-1.52
-1.51
-1.53
-1.51
-1.51
-1.51
-1.51
-1.525
-1.535
-1.55
-1.56
-1.58
-1.595
-1.61
-1.615
-1.625
-1.635
-1.645
-1.65
-1.65
-1.65
-1.65
-1.65
-1.645
-1.645
-1.635
-1.63
-1.63
-1.64
-1.64
-1.645
-1.645
-1.63
-1.625
-1.63
-1.63
-1.585
-1.45
-1.27
-1.01
-0.71
-0.375
-0.075
0.02
-0.165
-0.605
-1.245
-1.9
-2.245
-2.225
-2.015
-1.815
-1.68
-1.63
-1.625
-1.61
-1.61
-1.61
-1.61
-1.59
-1.58
-1.58
-1.58
-1.58
-1.58
-1.56
-1.56
-1.555
-1.555
-1.555
-1.555
-1.56
-1.55
-1.545
-1.545
-1.54
-1.545
-1.545
-1.545
-1.54
-1.53
-1.525
-1.51
-1.495
-1.5
-1.485
-1.465
-1.465
-1.45
-1.43
-1.415
-1.39
-1.395
-1.39
-1.375
-1.35
-1.34
-1.34
-1.34
-1.33
-1.32
-1.315
-1.31
-1.31
-1.315
-1.325
-1.325
-1.32
-1.32
-1.32
-1.32
-1.325
-1.32
-1.305
-1.3
-1.3
-1.3
-1.31
-1.315
-1.32
-1.335
-1.35
-1.37
-1.39
-1.415
-1.43
-1.44
-1.44
-1.445
-1.475
-1.495
-1.525
-1.53
-1.56
-1.56
-1.56
-1.545
-1.54
-1.545
-1.56
-1.565
-1.575
-1.575
-1.575
-1.57
-1.575
-1.58
-1.58
-1.58
-1.575
-1.575
-1.575
-1.575
-1.58
-1.58
-1.59
-1.59
-1.595
-1.595
-1.595
-1.6
-1.59
-1.59
-1.58
-1.59
-1.605
-1.61
-1.61
-1.61
-1.61
-1.62
-1.595
-1.595
-1.59
-1.59
-1.595
-1.575
-1.56
-1.53
-1.525
-1.53
-1.53
-1.535
-1.53
-1.53
-1.54
-1.53
-1.53
-1.525
-1.505
-1.5
-1.495
-1.505
-1.525
-1.54
-1.545
-1.545
-1.555
-1.575
-1.59
-1.6
-1.62
-1.63
-1.63
-1.645
-1.65
-1.665
-1.66
-1.66
-1.655
-1.655
-1.665
-1.66
-1.655
-1.65
-1.665
-1.665
-1.68
-1.655
-1.645
-1.635
-1.63
-1.63
-1.57
-1.46
-1.315
-1.12
-0.865
-0.57
-0.3
-0.195
-0.375
-0.795
-1.39
-1.995
-2.315
-2.285
-2.075
-1.86
-1.73
-1.665
-1.645
-1.63
-1.63
-1.63
-1.625
-1.62
-1.61
-1.61
-1.6
-1.605
-1.595
-1.595
-1.59
-1.59
-1.59
-1.59
-1.59
-1.58
-1.59
-1.565
-1.56
-1.545
-1.54
-1.55
-1.54
-1.535
-1.525
-1.52
-1.505
-1.51
-1.51
-1.51
-1.495
-1.475
-1.47
-1.46
-1.45
-1.435
-1.42
-1.41
-1.405
-1.39
-1.365
-1.37
-1.355
-1.35
-1.34
-1.34
-1.34
-1.345
-1.345
-1.345
-1.33
-1.345
-1.35
-1.345
-1.35
-1.35
-1.355
-1.345
-1.33
-1.335
-1.34
-1.345
-1.345
-1.345
-1.37
-1.37
-1.375
-1.395
-1.405
-1.45
-1.47
-1.5
-1.51
-1.54
-1.545
-1.56
-1.56
-1.565
-1.575
-1.575
-1.58
-1.585
-1.59
-1.595
-1.595
-1.6
-1.6
-1.595
-1.595
-1.605
-1.62
-1.62
-1.615
-1.61
-1.61
-1.605
-1.61
-1.61
-1.615
-1.63
-1.625
-1.62
-1.615
-1.61
-1.615
-1.645
-1.63
-1.63
-1.63
-1.645
-1.65
-1.645
-1.64
-1.635
-1.615
-1.62
-1.61
-1.6
-1.59
-1.575
-1.56
-1.55
-1.545
-1.545
-1.545
-1.545
-1.56
-1.56
-1.555
-1.54
-1.54
-1.54
-1.53
-1.545
-1.555
-1.545
-1.555
-1.565
-1.59
-1.615
-1.63
-1.65
-1.665
-1.68
-1.68
-1.685
-1.7
-1.71
-1.68
-1.68
-1.68
-1.68
-1.695
-1.69
-1.7
-1.695
-1.68
-1.66
-1.65
-1.665
-1.68
-1.685
-1.68
-1.675
-1.62
-1.51
-1.34
-1.18
-1.01
-0.81
-0.58
-0.445
-0.55
-0.93
-1.53
-2.135
-2.455
-2.38
-2.125
-1.89
-1.75
-1.7
-1.675
-1.665
-1.66
-1.65
-1.63
-1.62
-1.615
-1.62
-1.615
-1.615
-1.61
-1.61
-1.62
-1.6
-1.61
-1.6
-1.6
-1.61
-1.59
-1.585
-1.585
-1.58
-1.59
-1.585
-1.575
-1.56
-1.545
-1.54
-1.525
-1.52
-1.505
-1.495
-1.495
-1.495
-1.475
-1.45
-1.44
-1.435
-1.425
-1.43
-1.42
-1.41
-1.405
-1.375
-1.375
-1.37
-1.365
-1.37
-1.365
-1.365
-1.37
-1.375
-1.375
-1.37
-1.36
-1.375
-1.375
-1.375
-1.375
-1.37
-1.385
-1.38
-1.385
-1.385
-1.385
-1.405
-1.405
-1.415
-1.425
-1.435
-1.46
-1.485
-1.505
-1.525
-1.53
-1.55
-1.565
-1.57
-1.575
-1.59
-1.595
-1.61
-1.595
-1.615
-1.615
-1.615
-1.615
-1.61
-1.62
-1.62
-1.63
-1.63
-1.625
-1.62
-1.61
-1.6
-1.615
-1.63
-1.645
-1.635
-1.63
-1.66
-1.66
-1.66
-1.65
-1.66
-1.66
-1.655
-1.65
-1.635
-1.64
-1.645
-1.645
-1.64
-1.645
-1.645
-1.645
-1.65
-1.635
-1.625
-1.63
-1.65
-1.665
-1.66
-1.645
-1.625
-1.63
-1.625
-1.63
-1.615
-1.615
-1.605
-1.595
-1.59
-1.575
-1.575
-1.575
-1.575
-1.56
-1.555
-1.555
-1.555
-1.55
-1.56
-1.55
-1.56
-1.565
-1.59
-1.625
-1.64
-1.65
-1.67
-1.68
-1.69
-1.685
-1.695
-1.7
-1.705
-1.7
-1.7
-1.7
-1.7
-1.69
-1.68
-1.68
-1.68
-1.69
-1.69
-1.68
-1.68
-1.68
-1.69
-1.705
-1.71
-1.68
-1.565
-1.39
-1.135
-0.81
-0.435
-0.105
0.03
-0.15
-0.605
-1.27
-1.96
-2.26
-2.195
-1.98
-1.8
-1.715
-1.69
-1.69
-1.68
-1.665
-1.665
-1.655
-1.66
-1.65
-1.645
-1.64
-1.63
-1.63
-1.63
-1.63
-1.625
-1.63
-1.625
-1.62
-1.615
-1.61
-1.6
-1.6
-1.61
-1.61
-1.6
-1.595
-1.605
-1.59
-1.59
-1.58
-1.575
-1.555
-1.545
-1.53
-1.525
-1.505
-1.48
-1.46
-1.445
-1.44
-1.45
-1.445
-1.445
-1.42
-1.395
-1.375
-1.35
-1.35
-1.355
-1.36
-1.36
-1.36
-1.37
-1.37
-1.365
-1.355
-1.36
-1.35
-1.345
-1.34
-1.345
-1.35
-1.35
-1.345
-1.365
-1.375
-1.395
-1.39
-1.4
-1.415
-1.445
-1.475
-1.495
-1.515
-1.525
-1.54
-1.56
-1.565
-1.575
-1.575
-1.585
-1.595
-1.61
-1.63
-1.62
-1.62
-1.615
-1.62
-1.63
-1.62
-1.625
-1.63
-1.635
-1.635
-1.645
-1.645
-1.645
-1.635
-1.645
-1.645
-1.65
-1.655
-1.66
-1.66
-1.65
-1.645
-1.635
-1.66
-1.68
-1.685
-1.68
-1.665
-1.66
-1.665
-1.66
-1.665
-1.67
-1.665
-1.665
-1.665
-1.66
-1.65
-1.655
-1.66
-1.66
-1.68
-1.67
-1.68
-1.665
-1.665
-1.665
-1.65
-1.645
-1.63
-1.62
-1.615
-1.615
-1.61
-1.59
-1.575
-1.575
-1.58
-1.59
-1.59
-1.59
-1.585
-1.58
-1.575
-1.56
-1.56
-1.56
-1.56
-1.57
-1.575
-1.59
-1.595
-1.615
-1.65
-1.675
-1.685
-1.705
-1.71
-1.7
-1.7
-1.685
-1.695
-1.71
-1.71
-1.71
-1.695
-1.7
-1.7
-1.71
-1.68
-1.68
-1.675
-1.67
-1.68
-1.68
-1.71
-1.71
-1.65
-1.51
-1.285
-0.98
-0.62
-0.23
0.035
-0.005
-0.33
-0.885
-1.58
-2.13
-2.27
-2.11
-1.89
-1.74
-1.68
-1.67
-1.68
-1.67
-1.665
-1.67
-1.66
-1.66
-1.655
-1.65
-1.635
-1.64
-1.645
-1.645
-1.645
-1.645
-1.645
-1.65
-1.63
-1.62
-1.615
-1.615
-1.625
-1.61
-1.595
-1.595
-1.59
-1.59
-1.575
-1.565
-1.555
-1.55
-1.545
-1.53
-1.525
-1.515
-1.495
-1.5
-1.495
-1.485
-1.475
-1.475
-1.465
-1.45
-1.435
-1.42
-1.405
-1.395
-1.385
-1.38
-1.375
-1.365
-1.36
-1.365
-1.37
-1.37
-1.36
-1.355
-1.34
-1.34
-1.345
-1.35
-1.35
-1.345
-1.34
-1.365
-1.37
-1.375
-1.38
-1.39
-1.405
-1.415
-1.435
-1.46
-1.475
-1.5
-1.51
-1.535
-1.545
-1.56
-1.57
-1.575
-1.56
-1.575
-1.58
-1.59
-1.595
-1.61
-1.62
-1.63
-1.645
-1.645
-1.645
-1.645
-1.645
-1.635
-1.635
-1.65
-1.66
-1.665
-1.66
-1.655
-1.65
-1.65
-1.645
-1.65
-1.665
-1.65
-1.65
-1.645
-1.65
-1.66
-1.65
-1.64
-1.645
-1.655
-1.665
-1.665
-1.66
-1.65
-1.65
-1.66
-1.655
-1.66
-1.65
-1.65
-1.65
-1.645
-1.65
-1.655
-1.655
-1.655
-1.665
-1.665
-1.65
-1.63
-1.615
-1.625
-1.635
-1.66
-1.665
-1.65
-1.645
-1.62
-1.61
-1.595
-1.59
-1.58
-1.59
-1.575
-1.575
-1.575
-1.565
-1.575
-1.56
-1.55
-1.53
-1.525
-1.53
-1.54
-1.56
-1.565
-1.58
-1.595
-1.61
-1.625
-1.645
-1.655
-1.665
-1.67
-1.68
-1.685
-1.68
-1.685
-1.68
-1.68
-1.68
-1.68
-1.68
-1.675
-1.68
-1.665
-1.68
-1.68
-1.665
-1.66
-1.665
-1.665
-1.655
-1.64
-1.56
-1.45
-1.285
-1.08
-0.86
-0.605
-0.39
-0.295
-0.46
-0.855
-1.44
-2.06
-2.405
-2.4
-2.165
-1.92
-1.77
-1.695
-1.67
-1.655
-1.65
-1.65
-1.645
-1.635
-1.615
-1.6
-1.61
-1.61
-1.61
-1.605
-1.59
-1.59
-1.58
-1.58
-1.575
-1.575
-1.58
-1.58
-1.575
-1.56
-1.54
-1.525
-1.53
-1.545
-1.56
-1.555
-1.545
-1.545
-1.51
-1.495
-1.49
-1.48
-1.45
-1.45
-1.45
-1.44
-1.425
-1.41
-1.41
-1.4
-1.39
-1.375
-1.355
-1.36
-1.35
-1.345
-1.34
-1.33
-1.34
-1.345
-1.37
-1.375
-1.38
-1.385
-1.395
-1.39
-1.385
-1.375
-1.375
-1.375
-1.375
-1.375
-1.375
-1.365
-1.355
-1.345
-1.36
-1.395
-1.43
-1.435
-1.46
-1.485
-1.505
-1.505
-1.5
-1.52
-1.53
-1.545
-1.565
-1.59
-1.595
-1.605
-1.59
-1.59
-1.59
-1.595
-1.61
-1.615
-1.62
-1.615
-1.615
-1.615
-1.61
-1.61
-1.595
-1.595
-1.595
-1.595
-1.61
-1.615
-1.615
-1.62
-1.61
-1.61
-1.61
-1.615
-1.615
-1.61
-1.61
-1.6
-1.61
-1.615
-1.63
-1.635
-1.635
-1.63
-1.63
-1.61
-1.61
-1.615
-1.615
-1.63
-1.615
-1.615
-1.62
-1.63
-1.635
-1.645
-1.64
-1.62
-1.61
-1.62
-1.625
-1.635
-1.635
-1.63
-1.615
-1.61
-1.61
-1.59
-1.575
-1.565
-1.56
-1.545
-1.54
-1.545
-1.555
-1.56
-1.555
-1.54
-1.54
-1.53
-1.53
-1.51
-1.51
-1.53
-1.54
-1.545
-1.56
-1.54
-1.54
-1.565
-1.6
-1.65
-1.665
-1.665
-1.66
-1.665
-1.68
-1.68
-1.665
-1.65
-1.65
-1.65
-1.65
-1.65
-1.66
-1.665
-1.655
-1.655
-1.65
-1.645
-1.635
-1.63
-1.63
-1.615
-1.575
-1.48
-1.33
-1.145
-0.95
-0.72
-0.485
-0.325
-0.365
-0.69
-1.195
-1.82
-2.285
-2.385
-2.195
-1.96
-1.77
-1.685
-1.66
-1.65
-1.615
-1.595
-1.575
-1.58
-1.6
-1.61
-1.61
-1.605
-1.59
-1.58
-1.575
-1.575
-1.565
-1.565
-1.555
-1.55
-1.545
-1.555
-1.545
-1.54
-1.53
-1.53
-1.525
-1.52
-1.51
-1.515
-1.505
-1.5
-1.495
-1.495
-1.47
-1.46
-1.45
-1.44
-1.435
-1.425
-1.41
-1.405
-1.385
-1.375
-1.36
-1.345
-1.345
-1.345
-1.345
-1.345
-1.34
-1.345
-1.34
-1.34
-1.34
-1.345
-1.35
-1.36
-1.36
-1.365
-1.365
-1.365
-1.355
-1.345
-1.345
-1.35
-1.345
-1.345
-1.35
-1.36
-1.375
-1.39
-1.415
-1.435
-1.45
-1.47
-1.48
-1.495
-1.51
-1.53
-1.545
-1.56
-1.56
-1.57
-1.585
-1.59
-1.605
-1.62
-1.6
-1.59
-1.58
-1.585
-1.615
-1.605
-1.595
-1.595
-1.595
-1.59
-1.58
-1.59
-1.58
-1.585
-1.59
-1.59
-1.59
-1.58
-1.575
-1.56
-1.575
-1.59
-1.58
-1.58
-1.59
-1.595
-1.61
-1.62
-1.615
-1.61
-1.6
-1.61
-1.61
-1.615
-1.61
-1.61
-1.6
-1.61
-1.615
-1.61
-1.615
-1.625
-1.62
-1.62
-1.6
-1.61
-1.63
-1.63
-1.63
-1.63
-1.63
-1.63
-1.62
-1.615
-1.62
-1.635
-1.63
-1.62
-1.605
-1.585
-1.565
-1.56
-1.56
-1.565
-1.575
-1.565
-1.555
-1.545
-1.545
-1.545
-1.545
-1.55
-1.54
-1.53
-1.53
-1.51
-1.505
-1.51
-1.52
-1.53
-1.555
-1.58
-1.585
-1.59
-1.61
-1.625
-1.645
-1.645
-1.665
-1.655
-1.665
-1.665
-1.665
-1.665
-1.65
-1.65
-1.65
-1.65
-1.65
-1.655
-1.66
-1.65
-1.64
-1.63
-1.625
-1.635
-1.63
-1.615
-1.53
-1.375
-1.185
-0.98
-0.725
-0.435
-0.2
-0.155
-0.39
-0.865
-1.535
-2.11
-2.345
-2.235
-1.995
-1.815
-1.715
-1.675
-1.65
-1.63
-1.625
-1.615
-1.615
-1.61
-1.61
-1.61
-1.61
-1.615
-1.59
-1.59
-1.59
-1.58
-1.58
-1.57
-1.56
-1.555
-1.555
-1.56
-1.56
-1.575
-1.58
-1.575
-1.555
-1.53
-1.52
-1.52
-1.51
-1.515
-1.51
-1.51
-1.505
-1.485
-1.47
-1.45
-1.425
-1.41
-1.405
-1.42
-1.42
-1.405
-1.385
-1.365
-1.355
-1.345
-1.34
-1.325
-1.32
-1.325
-1.32
-1.305
-1.315
-1.325
-1.335
-1.32
-1.315
-1.32
-1.32
-1.325
-1.32
-1.335
-1.335
-1.33
-1.335
-1.335
-1.345
-1.365
-1.37
-1.385
-1.405
-1.435
-1.44
-1.46
-1.47
-1.49
-1.505
-1.515
-1.525
-1.54
-1.555
-1.575
-1.59
-1.59
-1.595
-1.61
-1.595
-1.61
-1.595
-1.595
-1.6
-1.595
-1.595
-1.615
-1.59
-1.58
-1.58
-1.585
-1.6
-1.6
-1.595
-1.59
-1.59
-1.6
-1.595
-1.6
-1.595
-1.61
-1.615
-1.61
-1.595
-1.6
-1.61
-1.615
-1.615
-1.6
-1.595
-1.61
-1.615
-1.615
-1.62
-1.62
-1.63
-1.63
-1.63
-1.65
-1.645
-1.645
-1.645
-1.645
-1.645
-1.635
-1.63
-1.62
-1.62
-1.615
-1.625
-1.62
-1.625
-1.625
-1.645
-1.645
-1.65
-1.65
-1.645
-1.645
-1.63
-1.63
-1.615
-1.6
-1.585
-1.575
-1.575
-1.58
-1.58
-1.56
-1.55
-1.55
-1.54
-1.54
-1.545
-1.56
-1.555
-1.54
-1.52
-1.525
-1.54
-1.55
-1.55
-1.56
-1.57
-1.58
-1.595
-1.615
-1.63
-1.65
-1.66
-1.65
-1.655
-1.665
-1.67
-1.68
-1.685
-1.675
-1.68
-1.675
-1.665
-1.68
-1.665
-1.66
-1.665
-1.655
-1.65
-1.645
-1.63
-1.64
-1.63
-1.585
-1.445
-1.275
-1.075
-0.835
-0.535
-0.255
-0.1
-0.195
-0.55
-1.14
-1.82
-2.275
-2.315
-2.105
-1.885
-1.735
-1.67
-1.65
-1.65
-1.65
-1.65
-1.63
-1.625
-1.62
-1.615
-1.615
-1.615
-1.61
-1.595
-1.59
-1.585
-1.585
-1.56
-1.565
-1.575
-1.575
-1.575
-1.565
-1.56
-1.56
-1.57
-1.575
-1.56
-1.545
-1.545
-1.535
-1.525
-1.515
-1.505
-1.5
-1.49
-1.485
-1.465
-1.45
-1.43
-1.41
-1.405
-1.41
-1.405
-1.405
-1.375
-1.365
-1.355
-1.355
-1.345
-1.35
-1.34
-1.335
-1.325
-1.32
-1.32
-1.32
-1.31
-1.285
-1.29
-1.3
-1.31
-1.305
-1.295
-1.3
-1.295
-1.29
-1.285
-1.285
-1.29
-1.315
-1.345
-1.365
-1.375
-1.405
-1.425
-1.45
-1.465
-1.49
-1.505
-1.52
-1.53
-1.54
-1.545
-1.56
-1.565
-1.565
-1.58
-1.59
-1.595
-1.6
-1.595
-1.6
-1.605
-1.605
-1.61
-1.61
-1.61
-1.615
-1.615
-1.625
-1.61
-1.615
-1.595
-1.59
-1.61
-1.61
-1.615
-1.615
-1.62
-1.625
-1.615
-1.62
-1.605
-1.6
-1.615
-1.62
-1.625
-1.625
-1.625
-1.62
-1.615
-1.615
-1.62
-1.63
-1.63
-1.63
-1.63
-1.63
-1.63
-1.645
-1.65
-1.65
-1.635
-1.635
-1.625
-1.625
-1.625
-1.63
-1.645
-1.645
-1.645
-1.645
-1.645
-1.635
-1.63
-1.63
-1.66
-1.655
-1.65
-1.64
-1.625
-1.62
-1.605
-1.595
-1.58
-1.565
-1.565
-1.565
-1.575
-1.575
-1.575
-1.565
-1.555
-1.55
-1.53
-1.54
-1.535
-1.525
-1.51
-1.53
-1.54
-1.555
-1.56
-1.575
-1.595
-1.615
-1.63
-1.655
-1.665
-1.68
-1.675
-1.68
-1.68
-1.68
-1.68
-1.68
-1.665
-1.665
-1.68
-1.665
-1.66
-1.67
-1.67
-1.68
-1.665
-1.665
-1.65
-1.65
-1.645
-1.62
-1.53
-1.385
-1.185
-0.955
-0.69
-0.4
-0.18
-0.165
-0.435
-0.96
-1.66
-2.225
-2.405
-2.28
-2.04
-1.84
-1.725
-1.68
-1.66
-1.65
-1.63
-1.62
-1.615
-1.62
-1.63
-1.63
-1.63
-1.62
-1.605
-1.595
-1.595
-1.59
-1.59
-1.585
-1.59
-1.6
-1.59
-1.585
-1.58
-1.575
-1.565
-1.56
-1.545
-1.53
-1.53
-1.545
-1.545
-1.545
-1.53
-1.525
-1.51
-1.505
-1.49
-1.475
-1.46
-1.46
-1.45
-1.435
-1.42
-1.395
-1.375
-1.365
-1.36
-1.36
-1.345
-1.335
-1.315
-1.315
-1.325
-1.33
-1.33
-1.315
-1.325
-1.33
-1.34
-1.345
-1.33
-1.295
-1.305
-1.3
-1.305
-1.305
-1.3
-1.31
-1.32
-1.345
-1.355
-1.37
-1.385
-1.405
-1.44
-1.46
-1.47
-1.49
-1.505
-1.51
-1.53
-1.56
-1.58
-1.59
-1.595
-1.595
-1.59
-1.59
-1.595
-1.595
-1.61
-1.61
-1.61
-1.615
-1.615
-1.615
-1.61
-1.61
-1.615
-1.625
-1.63
-1.62
-1.615
-1.625
-1.615
-1.625
-1.625
-1.62
-1.63
-1.61
-1.595
-1.6
-1.615
-1.62
-1.62
-1.63
-1.625
-1.62
-1.625
-1.625
-1.63
-1.635
-1.625
-1.635
-1.645
-1.645
-1.645
-1.645
-1.645
-1.645
-1.63
-1.63
-1.63
-1.63
-1.625
-1.65
-1.65
-1.65
-1.645
-1.645
-1.65
-1.65
-1.65
-1.645
-1.635
-1.645
-1.65
-1.65
-1.645
-1.635
-1.64
-1.62
-1.615
-1.59
-1.58
-1.585
-1.575
-1.575
-1.56
-1.565
-1.565
-1.565
-1.565
-1.555
-1.545
-1.545
-1.545
-1.54
-1.54
-1.545
-1.555
-1.55
-1.545
-1.56
-1.575
-1.61
-1.625
-1.63
-1.645
-1.67
-1.68
-1.69
-1.68
-1.68
-1.67
-1.67
-1.68
-1.68
-1.69
-1.695
-1.69
-1.68
-1.68
-1.665
-1.665
-1.665
-1.665
-1.665
-1.645
-1.63
-1.575
-1.45
-1.255
-1.035
-0.775
-0.49
-0.225
-0.1
-0.245
-0.645
-1.265
-1.92
-2.335
-2.345
-2.14
-1.91
-1.765
-1.68
-1.665
-1.67
-1.68
-1.67
-1.66
-1.645
-1.625
-1.62
-1.615
-1.615
-1.615
-1.615
-1.61
-1.61
-1.61
-1.615
-1.63
-1.61
-1.595
-1.59
-1.58
-1.595
-1.59
-1.59
-1.575
-1.555
-1.545
-1.545
-1.545
-1.56
-1.545
-1.535
-1.51
-1.505
-1.505
-1.49
-1.475
-1.46
-1.435
-1.42
-1.42
-1.43
-1.425
-1.405
-1.385
-1.37
-1.355
-1.33
-1.33
-1.34
-1.345
-1.345
-1.335
-1.325
-1.315
-1.315
-1.32
-1.32
-1.32
-1.32
-1.315
-1.32
-1.315
-1.305
-1.315
-1.32
-1.325
-1.325
-1.315
-1.355
-1.39
-1.42
-1.435
-1.445
-1.47
-1.5
-1.525
-1.53
-1.56
-1.575
-1.59
-1.59
-1.595
-1.61
-1.615
-1.625
-1.625
-1.615
-1.595
-1.6
-1.62
-1.62
-1.625
-1.645
-1.645
-1.64
-1.625
-1.625
-1.635
-1.65
-1.65
-1.65
-1.635
-1.62
-1.62
-1.645
-1.645
-1.645
-1.63
-1.635
-1.645
-1.62
-1.625
-1.62
-1.63
-1.645
-1.65
-1.665
-1.67
-1.66
-1.66
-1.645
-1.63
-1.635
-1.645
-1.65
-1.65
-1.655
-1.65
-1.65
-1.665
-1.67
-1.665
-1.66
-1.655
-1.66
-1.655
-1.655
-1.65
-1.66
-1.66
-1.66
-1.665
-1.655
-1.65
-1.645
-1.645
-1.66
-1.65
-1.64
-1.63
-1.63
-1.63
-1.61
-1.59
-1.58
-1.58
-1.58
-1.585
-1.58
-1.58
-1.58
-1.565
-1.56
-1.545
-1.555
-1.56
-1.565
-1.56
-1.56
-1.56
-1.575
-1.59
-1.61
-1.615
-1.64
-1.65
-1.66
-1.67
-1.69
-1.695
-1.7
-1.695
-1.69
-1.68
-1.68
-1.68
-1.695
-1.695
-1.69
-1.685
-1.68
-1.665
-1.66
-1.67
-1.66
-1.665
-1.665
-1.63
-1.54
-1.35
-1.12
-0.82
-0.465
-0.105
0.11
0.115
-0.15
-0.62
-1.27
-1.91
-2.285
-2.275
-2.075
-1.875
-1.77
-1.725
-1.71
-1.69
-1.665
-1.65
-1.66
-1.665
-1.665
-1.66
-1.655
-1.65
-1.65
-1.635
-1.62
-1.62
-1.63
-1.645
-1.645
-1.63
-1.62
-1.62
-1.595
-1.59
-1.6
-1.615
-1.625
-1.605
-1.59
-1.575
-1.575
-1.575
-1.575
-1.56
-1.56
-1.545
-1.53
-1.525
-1.505
-1.495
-1.47
-1.45
-1.435
-1.42
-1.42
-1.42
-1.41
-1.405
-1.395
-1.385
-1.355
-1.35
-1.35
-1.36
-1.36
-1.35
-1.335
-1.32
-1.335
-1.35
-1.365
-1.355
-1.35
-1.345
-1.35
-1.35
-1.355
-1.37
-1.365
-1.39
-1.395
-1.405
-1.42
-1.435
-1.485
-1.52
-1.545
-1.56
-1.565
-1.575
-1.575
-1.575
-1.575
-1.59
-1.615
-1.63
-1.64
-1.635
-1.635
-1.625
-1.62
-1.63
-1.655
-1.66
-1.665
-1.655
-1.65
-1.645
-1.645
-1.655
-1.665
-1.66
-1.65
-1.645
-1.635
-1.625
-1.63
-1.635
-1.65
-1.66
-1.675
-1.665
-1.67
-1.665
-1.67
-1.67
-1.665
-1.665
-1.67
-1.665
-1.655
-1.65
-1.655
-1.655
-1.65
-1.65
-1.65
-1.665
-1.68
-1.68
-1.68
-1.66
-1.66
-1.665
-1.68
-1.68
-1.68
-1.675
-1.67
-1.675
-1.675
-1.665
-1.67
-1.68
-1.68
-1.665
-1.66
-1.67
-1.665
-1.665
-1.66
-1.665
-1.67
-1.66
-1.65
-1.64
-1.645
-1.63
-1.595
-1.585
-1.58
-1.59
-1.6
-1.59
-1.595
-1.595
-1.595
-1.59
-1.575
-1.56
-1.56
-1.575
-1.575
-1.58
-1.575
-1.56
-1.56
-1.59
-1.62
-1.645
-1.66
-1.68
-1.68
-1.68
-1.685
-1.68
-1.7
-1.7
-1.71
-1.695
-1.695
-1.69
-1.685
-1.67
-1.665
-1.68
-1.685
-1.69
-1.685
-1.695
-1.68
-1.695
-1.695
-1.63
-1.52
-1.305
-1.01
-0.65
-0.27
0.08
0.26
0.225
-0.065
-0.56
-1.25
-1.885
-2.17
-2.105
-1.92
-1.765
-1.7
-1.695
-1.695
-1.695
-1.685
-1.675
-1.655
-1.65
-1.655
-1.66
-1.66
-1.655
-1.65
-1.635
-1.635
-1.63
-1.625
-1.63
-1.63
-1.62
-1.625
-1.645
-1.625
-1.625
-1.62
-1.62
-1.635
-1.615
-1.6
-1.585
-1.585
-1.585
-1.585
-1.575
-1.56
-1.56
-1.545
-1.525
-1.505
-1.49
-1.475
-1.47
-1.465
-1.45
-1.45
-1.425
-1.415
-1.395
-1.385
-1.39
-1.395
-1.39
-1.37
-1.36
-1.345
-1.345
-1.345
-1.34
-1.34
-1.33
-1.325
-1.315
-1.31
-1.3
-1.32
-1.34
-1.36
-1.375
-1.375
-1.4
-1.405
-1.415
-1.445
-1.46
-1.495
-1.51
-1.53
-1.53
-1.54
-1.55
-1.56
-1.575
-1.585
-1.59
-1.6
-1.6
-1.6
-1.595
-1.595
-1.615
-1.63
-1.64
-1.65
-1.645
-1.65
-1.645
-1.635
-1.645
-1.65
-1.665
-1.66
-1.665
-1.655
-1.65
-1.655
-1.665
-1.67
-1.665
-1.65
-1.65
-1.67
-1.655
-1.65
-1.645
-1.645
-1.65
-1.645
-1.65
-1.655
-1.66
-1.665
-1.665
-1.67
-1.655
-1.655
-1.65
-1.65
-1.66
-1.66
-1.66
-1.655
-1.66
-1.66
-1.65
-1.65
-1.655
-1.665
-1.665
-1.66
-1.665
-1.66
-1.655
-1.65
-1.645
-1.645
-1.66
-1.67
-1.665
-1.665
-1.66
-1.65
-1.645
-1.66
-1.66
-1.665
-1.655
-1.635
-1.615
-1.585
-1.585
-1.59
-1.59
-1.58
-1.575
-1.565
-1.555
-1.555
-1.56
-1.555
-1.56
-1.555
-1.555
-1.56
-1.555
-1.545
-1.54
-1.545
-1.545
-1.56
-1.575
-1.59
-1.61
-1.62
-1.63
-1.655
-1.66
-1.665
-1.665
-1.665
-1.66
-1.665
-1.67
-1.67
-1.665
-1.665
-1.66
-1.65
-1.65
-1.65
-1.665
-1.65
-1.63
-1.645
-1.65
-1.665
-1.65
-1.58
-1.43
-1.175
-0.835
-0.455
-0.075
0.2
0.22
-0.055
-0.58
-1.285
-1.91
-2.185
-2.11
-1.905
-1.745
-1.665
-1.65
-1.655
-1.66
-1.65
-1.645
-1.64
-1.615
-1.61
-1.61
-1.615
-1.615
-1.615
-1.615
-1.61
-1.61
-1.595
-1.6
-1.6
-1.615
-1.59
-1.575
-1.575
-1.575
-1.59
-1.575
-1.575
-1.56
-1.56
-1.555
-1.545
-1.545
-1.54
-1.53
-1.51
-1.505
-1.5
-1.49
-1.47
-1.465
-1.45
-1.435
-1.415
-1.405
-1.405
-1.39
-1.375
-1.37
-1.365
-1.365
-1.35
-1.345
-1.34
-1.34
-1.34
-1.33
-1.335
-1.325
-1.32
-1.32
-1.315
-1.3
-1.315
-1.315
-1.32
-1.32
-1.305
-1.335
-1.345
-1.365
-1.38
-1.4
-1.405
-1.41
-1.435
-1.46
-1.49
-1.51
-1.52
-1.53
-1.53
-1.54
-1.545
-1.56
-1.565
-1.565
-1.565
-1.56
-1.575
-1.59
-1.605
-1.61
-1.61
-1.595
-1.6
-1.615
-1.62
-1.615
-1.615
-1.615
-1.615
-1.615
-1.625
-1.63
-1.63
-1.63
-1.615
-1.615
-1.635
-1.615
-1.62
-1.62
-1.625
-1.64
-1.62
-1.615
-1.615
-1.62
-1.615
-1.615
-1.615
-1.61
-1.615
-1.62
-1.615
-1.615
-1.615
-1.625
-1.635
-1.63
-1.63
-1.63
-1.635
-1.64
-1.645
-1.63
-1.625
-1.625
-1.62
-1.63
-1.63
-1.63
-1.63
-1.63
-1.625
-1.625
-1.63
-1.63
-1.62
-1.615
-1.63
-1.625
-1.62
-1.615
-1.615
-1.615
-1.59
-1.59
-1.575
-1.56
-1.545
-1.53
-1.535
-1.54
-1.545
-1.555
-1.54
-1.525
-1.51
-1.5
-1.505
-1.525
-1.53
-1.53
-1.53
-1.53
-1.52
-1.51
-1.535
-1.575
-1.6
-1.63
-1.65
-1.63
-1.63
-1.635
-1.65
-1.65
-1.65
-1.65
-1.645
-1.65
-1.65
-1.65
-1.65
-1.63
-1.635
-1.65
-1.635
-1.63
-1.64
-1.65
-1.655
-1.63
-1.565
-1.43
-1.245
-1.025
-0.765
-0.465
-0.205
-0.14
-0.345
-0.79
-1.405
-2.01
-2.315
-2.285
-2.06
-1.85
-1.72
-1.67
-1.65
-1.645
-1.62
-1.615
-1.605
-1.59
-1.585
-1.585
-1.575
-1.575
-1.58
-1.59
-1.59
-1.595
-1.59
-1.59
-1.59
-1.595
-1.58
-1.58
-1.56
-1.55
-1.56
-1.545
-1.54
-1.525
-1.51
-1.5
-1.5
-1.51
-1.51
-1.505
-1.485
-1.465
-1.45
-1.435
-1.415
-1.405
-1.41
-1.395
-1.39
-1.375
-1.37
-1.36
-1.345
-1.34
-1.335
-1.345
-1.35
-1.35
-1.345
-1.335
-1.33
-1.325
-1.335
-1.35
-1.345
-1.34
-1.34
-1.33
-1.35
-1.345
-1.34
-1.345
-1.35
-1.39
-1.41
-1.42
-1.41
-1.405
-1.4
-1.405
-1.43
-1.44
-1.46
-1.47
-1.48
-1.495
-1.5
-1.505
-1.51
-1.54
-1.575
-1.6
-1.595
-1.58
-1.575
-1.575
-1.58
-1.58
-1.575
-1.59
-1.58
-1.58
-1.57
-1.565
-1.56
-1.56
-1.575
-1.585
-1.59
-1.58
-1.585
-1.59
-1.59
-1.59
-1.595
-1.58
-1.58
-1.58
-1.595
-1.61
-1.59
-1.58
-1.575
-1.575
-1.59
-1.595
-1.595
-1.595
-1.595
-1.595
-1.585
-1.58
-1.59
-1.595
-1.59
-1.59
-1.595
-1.59
-1.595
-1.595
-1.6
-1.595
-1.6
-1.605
-1.595
-1.595
-1.6
-1.59
-1.59
-1.58
-1.585
-1.59
-1.595
-1.61
-1.61
-1.6
-1.61
-1.59
-1.58
-1.575
-1.56
-1.565
-1.54
-1.53
-1.515
-1.505
-1.51
-1.52
-1.52
-1.51
-1.51
-1.505
-1.51
-1.495
-1.5
-1.5
-1.505
-1.51
-1.51
-1.51
-1.53
-1.54
-1.555
-1.575
-1.595
-1.615
-1.62
-1.63
-1.635
-1.63
-1.62
-1.615
-1.62
-1.625
-1.63
-1.635
-1.63
-1.63
-1.645
-1.645
-1.63
-1.615
-1.615
-1.63
-1.62
-1.625
-1.63
-1.59
-1.48
-1.315
-1.07
-0.77
-0.435
-0.11
0.005
-0.165
-0.62
-1.28
-1.94
-2.245
-2.175
-1.95
-1.765
-1.665
-1.63
-1.63
-1.625
-1.615
-1.61
-1.595
-1.58
-1.58
-1.585
-1.58
-1.585
-1.58
-1.59
-1.58
-1.575
-1.56
-1.56
-1.56
-1.575
-1.575
-1.575
-1.585
-1.565
-1.545
-1.535
-1.53
-1.54
-1.52
-1.525
-1.53
-1.52
-1.51
-1.505
-1.495
-1.495
-1.485
-1.47
-1.455
-1.445
-1.43
-1.42
-1.42
-1.41
-1.4
-1.38
-1.37
-1.365
-1.355
-1.35
-1.35
-1.345
-1.35
-1.355
-1.365
-1.375
-1.365
-1.365
-1.37
-1.375
-1.39
-1.4
-1.405
-1.395
-1.375
-1.39
-1.38
-1.375
-1.365
-1.355
-1.38
-1.39
-1.405
-1.425
-1.435
-1.445
-1.45
-1.48
-1.505
-1.525
-1.53
-1.54
-1.545
-1.54
-1.545
-1.55
-1.56
-1.565
-1.57
-1.575
-1.575
-1.575
-1.58
-1.585
-1.58
-1.59
-1.595
-1.59
-1.59
-1.59
-1.6
-1.61
-1.61
-1.61
-1.6
-1.59
-1.575
-1.575
-1.59
-1.595
-1.595
-1.615
-1.59
-1.58
-1.58
-1.585
-1.585
-1.58
-1.59
-1.61
-1.615
-1.615
-1.595
-1.59
-1.59
-1.595
-1.605
-1.6
-1.595
-1.595
-1.595
-1.61
-1.615
-1.62
-1.615
-1.62
-1.615
-1.62
-1.61
-1.6
-1.595
-1.6
-1.595
-1.6
-1.58
-1.56
-1.54
-1.53
-1.53
-1.53
-1.51
-1.52
-1.52
-1.54
-1.525
-1.51
-1.505
-1.5
-1.47
-1.47
-1.47
-1.485
-1.495
-1.505
-1.51
-1.525
-1.545
-1.58
-1.615
-1.625
-1.615
-1.605
-1.62
-1.65
-1.665
-1.66
-1.65
-1.645
-1.635
-1.645
-1.63
-1.615
-1.615
-1.625
-1.645
-1.635
-1.61
-1.575
-1.555
-1.575
-1.595
-1.58
-1.485
-1.325
-1.135
-0.915
-0.675
-0.405
-0.225
-0.26
-0.575
-1.105
-1.745
-2.23
-2.365
-2.205
-1.975
-1.79
-1.685
-1.625
-1.6
-1.59
-1.58
-1.565
-1.575
-1.585
-1.59
-1.59
-1.59
-1.58
-1.575
-1.575
-1.58
-1.58
-1.565
-1.56
-1.56
-1.565
-1.55
-1.545
-1.53
-1.53
-1.525
-1.53
-1.525
-1.525
-1.51
-1.5
-1.495
-1.495
-1.5
-1.5
-1.47
-1.475
-1.475
-1.465
-1.46
-1.43
-1.43
-1.41
-1.405
-1.385
-1.365
-1.37
-1.37
-1.375
-1.36
-1.36
-1.355
-1.36
-1.375
-1.4
-1.425
-1.43
-1.425
-1.43
-1.425
-1.435
-1.445
-1.45
-1.45
-1.445
-1.45
-1.435
-1.425
-1.415
-1.415
-1.42
-1.41
-1.41
-1.415
-1.43
-1.44
-1.445
-1.445
-1.49
-1.525
-1.535
-1.54
-1.56
-1.555
-1.56
-1.565
-1.575
-1.58
-1.575
-1.575
-1.565
-1.56
-1.56
-1.56
-1.57
-1.575
-1.58
-1.58
-1.575
-1.575
-1.575
-1.58
-1.575
-1.58
-1.585
-1.58
-1.565
-1.56
-1.565
-1.59
-1.595
-1.595
-1.6
-1.59
-1.585
-1.575
-1.575
-1.575
-1.575
-1.58
-1.6
-1.61
-1.61
-1.61
-1.62
-1.605
-1.61
-1.595
-1.59
-1.59
-1.59
-1.6
-1.6
-1.605
-1.61
-1.61
-1.61
-1.6
-1.595
-1.585
-1.58
-1.58
-1.59
-1.595
-1.6
-1.59
-1.58
-1.56
-1.545
-1.545
-1.54
-1.53
-1.525
-1.51
-1.51
-1.51
-1.515
-1.515
-1.51
-1.505
-1.505
-1.5
-1.5
-1.505
-1.525
-1.53
-1.555
-1.55
-1.56
-1.59
-1.615
-1.635
-1.62
-1.63
-1.62
-1.625
-1.645
-1.65
-1.665
-1.66
-1.65
-1.635
-1.63
-1.615
-1.615
-1.625
-1.63
-1.63
-1.63
-1.625
-1.615
-1.62
-1.63
-1.635
-1.6
-1.475
-1.26
-0.975
-0.63
-0.26
-0.02
-0.04
-0.375
-0.975
-1.65
-2.13
-2.225
-2.035
-1.82
-1.68
-1.635
-1.62
-1.625
-1.65
-1.64
-1.63
-1.62
-1.615
-1.615
-1.61
-1.6
-1.595
-1.595
-1.59
-1.59
-1.585
-1.585
-1.595
-1.59
-1.59
-1.58
-1.58
-1.58
-1.575
-1.56
-1.555
-1.55
-1.545
-1.535
-1.53
-1.54
-1.53
-1.535
-1.525
-1.51
-1.51
-1.5
-1.475
-1.465
-1.45
-1.435
-1.42
-1.41
-1.405
-1.395
-1.375
-1.375
-1.375
-1.375
-1.375
-1.375
-1.395
-1.395
-1.4
-1.405
-1.405
-1.43
-1.43
-1.435
-1.445
-1.435
-1.425
-1.415
-1.43
-1.44
-1.435
-1.42
-1.405
-1.395
-1.395
-1.41
-1.42
-1.435
-1.45
-1.455
-1.465
-1.47
-1.49
-1.5
-1.515
-1.53
-1.53
-1.53
-1.55
-1.56
-1.575
-1.58
-1.58
-1.575
-1.58
-1.6
-1.6
-1.615
-1.595
-1.615
-1.62
-1.615
-1.615
-1.605
-1.61
-1.595
-1.595
-1.605
-1.595
-1.61
-1.61
-1.6
-1.6
-1.61
-1.615
-1.615
-1.61
-1.61
-1.61
-1.61
-1.61
-1.61
-1.6
-1.61
-1.595
-1.59
-1.595
-1.595
-1.595
-1.59
-1.595
-1.61
-1.61
-1.63
-1.65
-1.66
-1.655
-1.65
-1.645
-1.65
-1.625
-1.61
-1.59
-1.58
-1.57
-1.56
-1.56
-1.54
-1.53
-1.54
-1.54
-1.55
-1.555
-1.55
-1.54
-1.53
-1.51
-1.51
-1.505
-1.505
-1.51
-1.52
-1.53
-1.54
-1.555
-1.575
-1.58
-1.6
-1.615
-1.63
-1.65
-1.65
-1.665
-1.665
-1.665
-1.66
-1.65
-1.65
-1.66
-1.665
-1.655
-1.65
-1.62
-1.62
-1.625
-1.63
-1.645
-1.625
-1.615
-1.61
-1.58
-1.505
-1.35
-1.165
-0.995
-0.83
-0.64
-0.475
-0.465
-0.69
-1.15
-1.78
-2.32
-2.535
-2.41
-2.14
-1.905
-1.755
-1.68
-1.63
-1.61
-1.61
-1.61
-1.615
-1.615
-1.595
-1.58
-1.585
-1.585
-1.58
-1.59
-1.595
-1.58
-1.55
-1.5
-1.475
-1.46
-1.46
-1.475
-1.53
-1.545
-1.55
-1.545
-1.555
-1.555
-1.555
-1.545
-1.53
-1.485
-1.45
-1.435
-1.47
-1.52
-1.53
-1.5
-1.45
-1.395
-1.37
-1.385
-1.4
-1.39
-1.385
-1.385
-1.395
-1.4
-1.4
-1.395
-1.395
-1.405
-1.415
-1.44
-1.46
-1.475
-1.49
-1.485
-1.475
-1.485
-1.475
-1.475
-1.48
-1.47
-1.495
-1.5
-1.495
-1.47
-1.45
-1.46
-1.445
-1.44
-1.45
-1.46
-1.48
-1.485
-1.5
-1.53
-1.56
-1.575
-1.59
-1.585
-1.59
-1.59
-1.595
-1.6
-1.61
-1.61
-1.62
-1.63
-1.635
-1.645
-1.645
-1.63
-1.65
-1.665
-1.65
-1.585
-1.56
-1.565
-1.57
-1.575
-1.565
-1.565
-1.575
-1.58
-1.575
-1.59
-1.6
-1.61
-1.625
-1.615
-1.62
-1.62
-1.61
-1.595
-1.595
-1.61
-1.62
-1.63
-1.645
-1.645
-1.65
-1.65
-1.645
-1.63
-1.645
-1.65
-1.66
-1.65
-1.65
-1.65
-1.625
-1.595
-1.585
-1.575
-1.575
-1.575
-1.595
-1.61
-1.6
-1.59
-1.56
-1.545
-1.55
-1.54
-1.555
-1.575
-1.565
-1.565
-1.55
-1.545
-1.565
-1.54
-1.53
-1.53
-1.53
-1.54
-1.545
-1.575
-1.61
-1.645
-1.66
-1.655
-1.655
-1.665
-1.665
-1.675
-1.69
-1.7
-1.705
-1.695
-1.67
-1.65
-1.66
-1.69
-1.71
-1.685
-1.66
-1.645
-1.63
-1.645
-1.65
-1.65
-1.63
-1.58
-1.45
-1.255
-1.0
-0.71
-0.4
-0.15
-0.12
-0.375
-0.88
-1.56
-2.16
-2.375
-2.225
-1.975
-1.79
-1.71
-1.68
-1.68
-1.665
-1.645
-1.65
-1.655
-1.65
-1.635
-1.62
-1.615
-1.6
-1.595
-1.585
-1.58
-1.59
-1.61
-1.615
-1.61
-1.6
-1.6
-1.61
-1.615
-1.615
-1.6
-1.6
-1.605
-1.585
-1.545
-1.525
-1.545
-1.575
-1.56
-1.53
-1.505
-1.465
-1.46
-1.465
-1.47
-1.45
-1.42
-1.44
-1.46
-1.45
-1.42
-1.405
-1.405
-1.41
-1.39
-1.37
-1.38
-1.41
-1.425
-1.425
-1.415
-1.415
-1.42
-1.425
-1.42
-1.41
-1.405
-1.395
-1.395
-1.395
-1.395
-1.4
-1.395
-1.395
-1.395
-1.405
-1.41
-1.43
-1.435
-1.435
-1.435
-1.45
-1.475
-1.505
-1.54
-1.56
-1.555
-1.55
-1.56
-1.56
-1.56
-1.56
-1.545
-1.56
-1.56
-1.585
-1.595
-1.615
-1.615
-1.61
-1.605
-1.6
-1.595
-1.6
-1.595
-1.61
-1.615
-1.62
-1.61
-1.605
-1.6
-1.595
-1.595
-1.595
-1.59
-1.61
-1.625
-1.635
-1.635
-1.625
-1.61
-1.605
-1.61
-1.6
-1.6
-1.6
-1.595
-1.61
-1.63
-1.65
-1.67
-1.645
-1.61
-1.575
-1.58
-1.61
-1.595
-1.595
-1.59
-1.585
-1.58
-1.565
-1.575
-1.575
-1.575
-1.565
-1.545
-1.54
-1.54
-1.54
-1.52
-1.51
-1.51
-1.52
-1.51
-1.51
-1.505
-1.515
-1.53
-1.56
-1.575
-1.61
-1.615
-1.63
-1.63
-1.635
-1.66
-1.68
-1.715
-1.725
-1.725
-1.72
-1.735
-1.71
-1.68
-1.66
-1.65
-1.645
-1.615
-1.62
-1.635
-1.66
-1.665
-1.645
-1.62
-1.61
-1.595
-1.53
-1.41
-1.255
-1.055
-0.805
-0.535
-0.345
-0.345
-0.62
-1.115
-1.745
-2.265
-2.45
-2.295
-2.03
-1.815
-1.705
-1.68
-1.66
-1.65
-1.64
-1.63
-1.63
-1.63
-1.63
-1.615
-1.61
-1.605
-1.625
-1.63
-1.62
-1.6
-1.615
-1.59
-1.59
-1.58
-1.59
-1.61
-1.58
-1.56
-1.545
-1.56
-1.57
-1.575
-1.565
-1.53
-1.52
-1.53
-1.53
-1.51
-1.515
-1.485
-1.445
-1.425
-1.435
-1.44
-1.435
-1.42
-1.405
-1.4
-1.405
-1.385
-1.375
-1.365
-1.385
-1.4
-1.405
-1.4
-1.395
-1.4
-1.405
-1.405
-1.415
-1.435
-1.425
-1.425
-1.415
-1.42
-1.415
-1.4
-1.425
-1.43
-1.445
-1.45
-1.46
-1.47
-1.45
-1.435
-1.43
-1.44
-1.48
-1.52
-1.54
-1.545
-1.54
-1.53
-1.525
-1.54
-1.55
-1.565
-1.545
-1.54
-1.56
-1.595
-1.62
-1.63
-1.625
-1.615
-1.62
-1.63
-1.625
-1.62
-1.6
-1.6
-1.6
-1.59
-1.59
-1.59
-1.61
-1.615
-1.62
-1.63
-1.6
-1.59
-1.59
-1.61
-1.62
-1.615
-1.61
-1.615
-1.63
-1.645
-1.635
-1.62
-1.61
-1.595
-1.585
-1.58
-1.61
-1.63
-1.635
-1.645
-1.64
-1.63
-1.63
-1.625
-1.63
-1.625
-1.615
-1.595
-1.59
-1.58
-1.575
-1.56
-1.555
-1.56
-1.57
-1.575
-1.56
-1.56
-1.56
-1.545
-1.545
-1.55
-1.53
-1.53
-1.53
-1.545
-1.565
-1.56
-1.575
-1.59
-1.615
-1.64
-1.63
-1.63
-1.645
-1.68
-1.69
-1.68
-1.68
-1.68
-1.685
-1.7
-1.7
-1.695
-1.68
-1.665
-1.645
-1.62
-1.62
-1.63
-1.655
-1.66
-1.67
-1.67
-1.65
-1.575
-1.435
-1.205
-0.915
-0.55
-0.195
0.05
-0.005
-0.335
-0.88
-1.575
-2.13
-2.275
-2.13
-1.905
-1.755
-1.68
-1.67
-1.68
-1.68
-1.68
-1.68
-1.675
-1.66
-1.65
-1.635
-1.615
-1.59
-1.56
-1.555
-1.56
-1.58
-1.615
-1.63
-1.63
-1.62
-1.62
-1.625
-1.625
-1.62
-1.62
-1.6
-1.59
-1.58
-1.575
-1.565
-1.555
-1.55
-1.53
-1.52
-1.5
-1.5
-1.485
-1.48
-1.475
-1.445
-1.455
-1.44
-1.425
-1.41
-1.39
-1.395
-1.385
-1.38
-1.365
-1.36
-1.365
-1.37
-1.375
-1.365
-1.37
-1.365
-1.375
-1.385
-1.385
-1.395
-1.385
-1.385
-1.375
-1.37
-1.37
-1.37
-1.37
-1.365
-1.37
-1.38
-1.375
-1.395
-1.4
-1.415
-1.435
-1.45
-1.47
-1.5
-1.505
-1.52
-1.525
-1.53
-1.525
-1.53
-1.53
-1.54
-1.56
-1.56
-1.555
-1.56
-1.57
-1.58
-1.585
-1.585
-1.58
-1.575
-1.575
-1.585
-1.58
-1.575
-1.56
-1.575
-1.595
-1.6
-1.595
-1.595
-1.59
-1.585
-1.575
-1.56
-1.575
-1.575
-1.58
-1.59
-1.595
-1.595
-1.595
-1.59
-1.595
-1.595
-1.59
-1.595
-1.595
-1.61
-1.595
-1.59
-1.58
-1.58
-1.58
-1.565
-1.555
-1.545
-1.54
-1.53
-1.525
-1.52
-1.525
-1.515
-1.525
-1.51
-1.49
-1.48
-1.47
-1.49
-1.49
-1.49
-1.505
-1.51
-1.525
-1.53
-1.545
-1.56
-1.59
-1.615
-1.63
-1.645
-1.63
-1.635
-1.635
-1.635
-1.63
-1.63
-1.63
-1.62
-1.615
-1.615
-1.625
-1.635
-1.645
-1.64
-1.645
-1.62
-1.615
-1.615
-1.59
-1.56
-1.47
-1.355
-1.225
-1.105
-0.98
-0.83
-0.68
-0.68
-0.89
-1.315
-1.875
-2.335
-2.465
-2.315
-2.045
-1.815
-1.68
-1.625
-1.6
-1.595
-1.595
-1.595
-1.58
-1.565
-1.555
-1.555
-1.55
-1.555
-1.555
-1.55
-1.55
-1.555
-1.555
-1.545
-1.54
-1.54
-1.555
-1.53
-1.53
-1.525
-1.515
-1.485
-1.475
-1.475
-1.475
-1.48
-1.46
-1.46
-1.455
-1.445
-1.43
-1.425
-1.425
-1.415
-1.405
-1.375
-1.36
-1.345
-1.335
-1.34
-1.34
-1.34
-1.32
-1.315
-1.305
-1.31
-1.315
-1.315
-1.315
-1.32
-1.315
-1.32
-1.315
-1.325
-1.34
-1.35
-1.355
-1.355
-1.34
-1.34
-1.32
-1.305
-1.3
-1.305
-1.33
-1.345
-1.36
-1.36
-1.355
-1.39
-1.41
-1.445
-1.45
-1.465
-1.485
-1.5
-1.515
-1.53
-1.53
-1.535
-1.54
-1.54
-1.545
-1.545
-1.555
-1.545
-1.56
-1.575
-1.58
-1.575
-1.565
-1.57
-1.56
-1.555
-1.555
-1.56
-1.56
-1.565
-1.56
-1.565
-1.56
-1.55
-1.56
-1.56
-1.56
-1.58
-1.56
-1.56
-1.56
-1.565
-1.59
-1.595
-1.595
-1.59
-1.59
-1.595
-1.58
-1.585
-1.58
-1.56
-1.545
-1.54
-1.53
-1.525
-1.515
-1.515
-1.52
-1.53
-1.53
-1.515
-1.51
-1.5
-1.495
-1.49
-1.475
-1.475
-1.475
-1.495
-1.505
-1.51
-1.51
-1.53
-1.545
-1.59
-1.62
-1.65
-1.655
-1.665
-1.645
-1.63
-1.63
-1.635
-1.65
-1.63
-1.63
-1.625
-1.62
-1.62
-1.615
-1.63
-1.625
-1.62
-1.625
-1.615
-1.62
-1.61
-1.585
-1.51
-1.385
-1.22
-1.05
-0.885
-0.68
-0.5
-0.435
-0.595
-1.01
-1.62
-2.195
-2.475
-2.4
-2.15
-1.91
-1.77
-1.68
-1.65
-1.63
-1.6
-1.59
-1.58
-1.58
-1.58
-1.575
-1.565
-1.58
-1.56
-1.545
-1.54
-1.53
-1.54
-1.525
-1.54
-1.535
-1.53
-1.53
-1.525
-1.53
-1.53
-1.52
-1.515
-1.505
-1.495
-1.48
-1.475
-1.48
-1.475
-1.46
-1.445
-1.43
-1.43
-1.425
-1.415
-1.405
-1.4
-1.39
-1.375
-1.355
-1.355
-1.345
-1.34
-1.32
-1.325
-1.33
-1.335
-1.33
-1.325
-1.305
-1.31
-1.32
-1.335
-1.34
-1.335
-1.35
-1.35
-1.35
-1.36
-1.365
-1.365
-1.355
-1.355
-1.365
-1.375
-1.385
-1.395
-1.395
-1.405
-1.42
-1.435
-1.465
-1.485
-1.495
-1.52
-1.52
-1.53
-1.535
-1.55
-1.555
-1.56
-1.56
-1.56
-1.56
-1.56
-1.56
-1.555
-1.555
-1.56
-1.58
-1.595
-1.6
-1.59
-1.58
-1.575
-1.57
-1.59
-1.575
-1.575
-1.575
-1.575
-1.575
-1.56
-1.56
-1.56
-1.56
-1.57
-1.57
-1.58
-1.58
-1.6
-1.595
-1.61
-1.595
-1.59
-1.59
-1.59
-1.59
-1.585
-1.59
-1.595
-1.59
-1.585
-1.575
-1.575
-1.565
-1.56
-1.56
-1.56
-1.545
-1.53
-1.535
-1.53
-1.53
-1.525
-1.53
-1.53
-1.51
-1.5
-1.52
-1.51
-1.51
-1.505
-1.505
-1.525
-1.53
-1.53
-1.54
-1.545
-1.56
-1.6
-1.62
-1.63
-1.635
-1.63
-1.63
-1.645
-1.65
-1.65
-1.645
-1.65
-1.65
-1.645
-1.63
-1.635
-1.63
-1.645
-1.65
-1.635
-1.63
-1.62
-1.615
-1.615
-1.61
-1.57
-1.47
-1.32
-1.1
-0.84
-0.54
-0.27
-0.19
-0.41
-0.9
-1.56
-2.14
-2.315
-2.18
-1.95
-1.77
-1.68
-1.63
-1.615
-1.61
-1.6
-1.595
-1.595
-1.595
-1.59
-1.58
-1.575
-1.58
-1.59
-1.59
-1.575
-1.555
-1.545
-1.555
-1.56
-1.56
-1.56
-1.555
-1.56
-1.54
-1.53
-1.53
-1.54
-1.54
-1.53
-1.525
-1.52
-1.505
-1.495
-1.485
-1.47
-1.45
-1.435
-1.41
-1.42
-1.405
-1.405
-1.385
-1.35
-1.35
-1.345
-1.33
-1.315
-1.305
-1.31
-1.3
-1.3
-1.31
-1.315
-1.32
-1.32
-1.315
-1.315
-1.315
-1.31
-1.3
-1.29
-1.295
-1.295
-1.3
-1.3
-1.3
-1.295
-1.3
-1.305
-1.31
-1.32
-1.335
-1.36
-1.375
-1.41
-1.45
-1.475
-1.51
-1.52
-1.535
-1.53
-1.53
-1.545
-1.56
-1.56
-1.555
-1.56
-1.56
-1.56
-1.575
-1.575
-1.575
-1.58
-1.575
-1.575
-1.56
-1.565
-1.565
-1.575
-1.57
-1.575
-1.575
-1.58
-1.58
-1.595
-1.595
-1.59
-1.58
-1.58
-1.585
-1.59
-1.595
-1.61
-1.61
-1.605
-1.605
-1.6
-1.6
-1.595
-1.595
-1.595
-1.61
-1.59
-1.58
-1.575
-1.58
-1.585
-1.545
-1.53
-1.53
-1.53
-1.53
-1.53
-1.525
-1.53
-1.515
-1.51
-1.51
-1.5
-1.495
-1.5
-1.505
-1.51
-1.53
-1.55
-1.55
-1.545
-1.56
-1.595
-1.625
-1.645
-1.645
-1.635
-1.65
-1.645
-1.65
-1.65
-1.645
-1.65
-1.655
-1.655
-1.665
-1.655
-1.66
-1.645
-1.63
-1.63
-1.645
-1.665
-1.655
-1.65
-1.65
-1.645
-1.595
-1.475
-1.3
-1.075
-0.81
-0.5
-0.2
-0.065
-0.2
-0.615
-1.22
-1.87
-2.285
-2.33
-2.125
-1.89
-1.745
-1.675
-1.64
-1.63
-1.63
-1.645
-1.63
-1.62
-1.61
-1.605
-1.595
-1.6
-1.595
-1.59
-1.58
-1.58
-1.58
-1.575
-1.575
-1.56
-1.56
-1.56
-1.55
-1.55
-1.555
-1.545
-1.56
-1.55
-1.56
-1.545
-1.54
-1.53
-1.51
-1.505
-1.5
-1.5
-1.47
-1.465
-1.445
-1.435
-1.41
-1.395
-1.385
-1.375
-1.365
-1.36
-1.345
-1.335
-1.325
-1.315
-1.325
-1.335
-1.34
-1.335
-1.32
-1.315
-1.315
-1.31
-1.305
-1.31
-1.305
-1.31
-1.3
-1.29
-1.295
-1.29
-1.295
-1.31
-1.315
-1.335
-1.35
-1.375
-1.395
-1.41
-1.44
-1.465
-1.495
-1.505
-1.53
-1.53
-1.545
-1.56
-1.56
-1.565
-1.56
-1.56
-1.56
-1.575
-1.58
-1.59
-1.59
-1.595
-1.59
-1.585
-1.585
-1.585
-1.585
-1.585
-1.58
-1.58
-1.58
-1.58
-1.59
-1.59
-1.605
-1.61
-1.61
-1.61
-1.595
-1.6
-1.625
-1.62
-1.625
-1.62
-1.615
-1.625
-1.615
-1.62
-1.62
-1.62
-1.615
-1.615
-1.61
-1.615
-1.615
-1.63
-1.63
-1.63
-1.615
-1.61
-1.61
-1.61
-1.6
-1.58
-1.56
-1.54
-1.53
-1.515
-1.53
-1.54
-1.53
-1.54
-1.53
-1.54
-1.53
-1.52
-1.51
-1.51
-1.51
-1.525
-1.54
-1.545
-1.56
-1.56
-1.575
-1.585
-1.61
-1.655
-1.665
-1.665
-1.665
-1.665
-1.655
-1.66
-1.65
-1.65
-1.645
-1.65
-1.65
-1.65
-1.65
-1.65
-1.65
-1.655
-1.66
-1.645
-1.63
-1.645
-1.665
-1.65
-1.58
-1.435
-1.215
-0.92
-0.57
-0.195
0.11
0.195
-0.065
-0.6
-1.305
-1.98
-2.265
-2.165
-1.935
-1.755
-1.67
-1.645
-1.645
-1.65
-1.635
-1.63
-1.62
-1.62
-1.625
-1.62
-1.615
-1.6
-1.595
-1.6
-1.61
-1.61
-1.595
-1.595
-1.595
-1.59
-1.59
-1.58
-1.58
-1.575
-1.56
-1.56
-1.545
-1.55
-1.545
-1.545
-1.545
-1.53
-1.505
-1.495
-1.475
-1.47
-1.47
-1.46
-1.45
-1.43
-1.41
-1.395
-1.39
-1.385
-1.375
-1.345
-1.34
-1.345
-1.33
-1.32
-1.3
-1.305
-1.295
-1.29
-1.285
-1.285
-1.285
-1.285
-1.285
-1.285
-1.275
-1.265
-1.255
-1.255
-1.255
-1.265
-1.275
-1.275
-1.285
-1.31
-1.34
-1.355
-1.385
-1.41
-1.435
-1.45
-1.465
-1.485
-1.505
-1.525
-1.54
-1.55
-1.56
-1.565
-1.56
-1.565
-1.56
-1.575
-1.565
-1.565
-1.565
-1.58
-1.595
-1.59
-1.59
-1.585
-1.6
-1.62
-1.61
-1.61
-1.61
-1.61
-1.62
-1.62
-1.615
-1.61
-1.6
-1.62
-1.625
-1.635
-1.645
-1.645
-1.63
-1.635
-1.63
-1.635
-1.645
-1.63
-1.62
-1.615
-1.625
-1.635
-1.63
-1.625
-1.615
-1.615
-1.62
-1.62
-1.63
-1.63
-1.63
-1.63
-1.625
-1.625
-1.645
-1.625
-1.615
-1.59
-1.58
-1.575
-1.56
-1.545
-1.545
-1.555
-1.545
-1.55
-1.54
-1.53
-1.525
-1.51
-1.515
-1.53
-1.54
-1.54
-1.54
-1.545
-1.55
-1.565
-1.59
-1.61
-1.63
-1.635
-1.645
-1.65
-1.65
-1.665
-1.665
-1.68
-1.675
-1.665
-1.66
-1.65
-1.655
-1.65
-1.65
-1.655
-1.68
-1.67
-1.67
-1.67
-1.65
-1.655
-1.65
-1.665
-1.66
-1.595
-1.45
-1.225
-0.94
-0.57
-0.185
0.11
0.08
-0.31
-1.01
-1.77
-2.22
-2.205
-1.985
-1.79
-1.69
-1.665
-1.66
-1.655
-1.65
-1.645
-1.63
-1.63
-1.63
-1.61
-1.61
-1.6
-1.61
-1.615
-1.62
-1.62
-1.61
-1.595
-1.585
-1.585
-1.59
-1.595
-1.61
-1.62
-1.595
-1.585
-1.585
-1.565
-1.56
-1.54
-1.53
-1.54
-1.54
-1.54
-1.52
-1.5
-1.49
-1.49
-1.47
-1.46
-1.435
-1.43
-1.415
-1.41
-1.395
-1.375
-1.36
-1.36
-1.355
-1.345
-1.335
-1.325
-1.325
-1.325
-1.315
-1.325
-1.325
-1.32
-1.32
-1.315
-1.305
-1.295
-1.3
-1.3
-1.305
-1.295
-1.315
-1.315
-1.315
-1.32
-1.325
-1.375
-1.405
-1.435
-1.445
-1.45
-1.47
-1.5
-1.53
-1.545
-1.555
-1.55
-1.545
-1.56
-1.575
-1.59
-1.595
-1.595
-1.595
-1.61
-1.615
-1.62
-1.615
-1.6
-1.6
-1.61
-1.6
-1.61
-1.62
-1.645
-1.65
-1.655
-1.645
-1.65
-1.645
-1.64
-1.63
-1.645
-1.63
-1.63
-1.635
-1.65
-1.67
-1.66
-1.65
-1.63
-1.63
-1.64
-1.645
-1.65
-1.645
-1.645
-1.65
-1.65
-1.65
-1.645
-1.65
-1.65
-1.655
-1.65
-1.65
-1.645
-1.645
-1.645
-1.645
-1.65
-1.65
-1.65
-1.645
-1.635
-1.61
-1.585
-1.56
-1.56
-1.56
-1.575
-1.58
-1.575
-1.575
-1.575
-1.56
-1.54
-1.53
-1.515
-1.495
-1.52
-1.53
-1.53
-1.545
-1.575
-1.585
-1.61
-1.615
-1.635
-1.635
-1.645
-1.65
-1.67
-1.695
-1.7
-1.7
-1.69
-1.68
-1.67
-1.665
-1.68
-1.68
-1.695
-1.69
-1.68
-1.665
-1.665
-1.68
-1.68
-1.665
-1.66
-1.645
-1.56
-1.4
-1.205
-0.99
-0.73
-0.435
-0.205
-0.195
-0.465
-1.0
-1.7
-2.275
-2.49
-2.35
-2.095
-1.87
-1.745
-1.68
-1.665
-1.66
-1.65
-1.635
-1.63
-1.625
-1.625
-1.625
-1.62
-1.61
-1.61
-1.6
-1.605
-1.59
-1.585
-1.58
-1.59
-1.59
-1.6
-1.59
-1.585
-1.575
-1.56
-1.56
-1.555
-1.555
-1.545
-1.545
-1.53
-1.53
-1.51
-1.495
-1.485
-1.475
-1.49
-1.475
-1.465
-1.44
-1.415
-1.415
-1.39
-1.37
-1.37
-1.37
-1.375
-1.375
-1.365
-1.35
-1.345
-1.34
-1.355
-1.365
-1.365
-1.355
-1.345
-1.34
-1.345
-1.345
-1.345
-1.335
-1.33
-1.34
-1.335
-1.34
-1.32
-1.32
-1.345
-1.36
-1.395
-1.405
-1.415
-1.44
-1.465
-1.49
-1.51
-1.53
-1.54
-1.555
-1.56
-1.57
-1.59
-1.575
-1.585
-1.59
-1.6
-1.63
-1.62
-1.615
-1.62
-1.625
-1.62
-1.62
-1.615
-1.615
-1.62
-1.63
-1.63
-1.635
-1.635
-1.645
-1.635
-1.645
-1.645
-1.645
-1.64
-1.62
-1.61
-1.61
-1.625
-1.645
-1.65
-1.65
-1.645
-1.645
-1.645
-1.65
-1.655
-1.66
-1.66
-1.65
-1.645
-1.65
-1.665
-1.66
-1.655
-1.66
-1.66
-1.665
-1.645
-1.635
-1.645
-1.65
-1.65
-1.645
-1.63
-1.625
-1.615
-1.61
-1.6
-1.58
-1.575
-1.575
-1.58
-1.575
-1.565
-1.56
-1.56
-1.545
-1.54
-1.545
-1.555
-1.565
-1.57
-1.575
-1.59
-1.595
-1.62
-1.63
-1.65
-1.665
-1.685
-1.695
-1.7
-1.7
-1.685
-1.68
-1.685
-1.695
-1.71
-1.735
-1.715
-1.705
-1.695
-1.68
-1.685
-1.68
-1.68
-1.68
-1.68
-1.67
-1.65
-1.61
-1.485
-1.31
-1.085
-0.855
-0.595
-0.37
-0.26
-0.405
-0.835
-1.475
-2.135
-2.5
-2.465
-2.22
-1.975
-1.8
-1.72
-1.675
-1.66
-1.65
-1.645
-1.645
-1.63
-1.62
-1.62
-1.61
-1.61
-1.61
-1.615
-1.625
-1.615
-1.61
-1.61
-1.595
-1.61
-1.58
-1.575
-1.585
-1.585
-1.585
-1.57
-1.545
-1.54
-1.54
-1.555
-1.555
-1.55
-1.545
-1.53
-1.51
-1.5
-1.49
-1.48
-1.475
-1.47
-1.45
-1.43
-1.41
-1.4
-1.395
-1.385
-1.375
-1.365
-1.355
-1.345
-1.35
-1.36
-1.36
-1.36
-1.36
-1.36
-1.345
-1.345
-1.345
-1.36
-1.365
-1.36
-1.37
-1.365
-1.355
-1.35
-1.345
-1.35
-1.36
-1.38
-1.395
-1.41
-1.435
-1.455
-1.485
-1.51
-1.525
-1.53
-1.55
-1.56
-1.58
-1.59
-1.59
-1.59
-1.58
-1.6
-1.6
-1.615
-1.615
-1.62
-1.62
-1.625
-1.62
-1.62
-1.62
-1.62
-1.615
-1.615
-1.615
-1.62
-1.62
-1.62
-1.625
-1.63
-1.61
-1.6
-1.595
-1.615
-1.63
-1.625
-1.63
-1.63
-1.63
-1.645
-1.635
-1.625
-1.615
-1.62
-1.625
-1.635
-1.645
-1.645
-1.63
-1.63
-1.635
-1.63
-1.63
-1.63
-1.63
-1.63
-1.63
-1.63
-1.645
-1.65
-1.65
-1.65
-1.645
-1.635
-1.635
-1.635
-1.625
-1.62
-1.6
-1.585
-1.565
-1.565
-1.545
-1.545
-1.545
-1.565
-1.58
-1.56
-1.555
-1.545
-1.545
-1.54
-1.525
-1.53
-1.54
-1.545
-1.555
-1.555
-1.565
-1.59
-1.615
-1.635
-1.65
-1.655
-1.665
-1.68
-1.68
-1.675
-1.665
-1.655
-1.65
-1.66
-1.665
-1.68
-1.655
-1.65
-1.65
-1.655
-1.655
-1.65
-1.635
-1.63
-1.63
-1.61
-1.515
-1.345
-1.105
-0.8
-0.435
-0.09
0.16
0.175
-0.105
-0.635
-1.36
-2.035
-2.345
-2.275
-2.03
-1.82
-1.7
-1.655
-1.65
-1.65
-1.63
-1.625
-1.615
-1.615
-1.61
-1.61
-1.615
-1.61
-1.605
-1.595
-1.59
-1.58
-1.575
-1.585
-1.585
-1.585
-1.59
-1.585
-1.575
-1.575
-1.565
-1.56
-1.555
-1.545
-1.54
-1.53
-1.54
-1.525
-1.515
-1.515
-1.505
-1.485
-1.485
-1.465
-1.455
-1.435
-1.42
-1.405
-1.395
-1.385
-1.37
-1.35
-1.335
-1.325
-1.315
-1.3
-1.29
-1.285
-1.27
-1.26
-1.265
-1.265
-1.255
-1.255
-1.255
-1.265
-1.28
-1.275
-1.275
-1.245
-1.255
-1.255
-1.265
-1.27
-1.285
-1.3
-1.315
-1.34
-1.35
-1.375
-1.385
-1.42
-1.435
-1.45
-1.48
-1.495
-1.51
-1.53
-1.545
-1.555
-1.56
-1.565
-1.575
-1.575
-1.565
-1.575
-1.565
-1.565
-1.565
-1.56
-1.56
-1.575
-1.59
-1.59
-1.59
-1.575
-1.575
-1.59
-1.595
-1.6
-1.615
-1.595
-1.6
-1.59
-1.59
-1.59
-1.595
-1.61
-1.615
-1.62
-1.615
-1.615
-1.61
-1.6
-1.595
-1.61
-1.61
-1.61
-1.605
-1.595
-1.61
-1.61
-1.615
-1.625
-1.625
-1.62
-1.6
-1.6
-1.61
-1.625
-1.63
-1.62
-1.615
-1.615
-1.615
-1.61
-1.605
-1.6
-1.61
-1.62
-1.61
-1.595
-1.59
-1.59
-1.59
-1.57
-1.56
-1.56
-1.555
-1.55
-1.53
-1.515
-1.51
-1.525
-1.53
-1.53
-1.525
-1.495
-1.5
-1.495
-1.505
-1.505
-1.53
-1.53
-1.545
-1.56
-1.58
-1.61
-1.63
-1.635
-1.63
-1.63
-1.645
-1.665
-1.665
-1.655
-1.65
-1.645
-1.635
-1.63
-1.625
-1.63
-1.63
-1.63
-1.63
-1.62
-1.625
-1.62
-1.63
-1.65
-1.625
-1.555
-1.385
-1.105
-0.75
-0.34
0.08
0.355
0.355
0.03
-0.53
-1.31
-1.985
-2.24
-2.13
-1.895
-1.74
-1.665
-1.645
-1.645
-1.63
-1.62
-1.615
-1.615
-1.625
-1.62
-1.615
-1.6
-1.6
-1.61
-1.615
-1.61
-1.6
-1.59
-1.585
-1.58
-1.575
-1.58
-1.575
-1.565
-1.565
-1.575
-1.56
-1.56
-1.55
-1.55
-1.54
-1.53
-1.51
-1.495
-1.47
-1.465
-1.47
-1.475
-1.475
-1.46
-1.42
-1.415
-1.405
-1.405
-1.385
-1.36
-1.36
-1.34
-1.33
-1.31
-1.3
-1.29
-1.295
-1.29
-1.275
-1.265
-1.255
-1.255
-1.265
-1.265
-1.255
-1.225
-1.22
-1.225
-1.225
-1.255
-1.255
-1.255
-1.265
-1.27
-1.3
-1.32
-1.335
-1.345
-1.37
-1.41
-1.445
-1.48
-1.5
-1.51
-1.53
-1.525
-1.53
-1.525
-1.53
-1.55
-1.55
-1.565
-1.555
-1.56
-1.565
-1.575
-1.575
-1.585
-1.595
-1.61
-1.6
-1.595
-1.585
-1.59
-1.61
-1.615
-1.61
-1.62
-1.62
-1.62
-1.595
-1.59
-1.595
-1.6
-1.595
-1.6
-1.595
-1.61
-1.62
-1.615
-1.62
-1.625
-1.625
-1.615
-1.62
-1.615
-1.615
-1.62
-1.6
-1.6
-1.6
-1.61
-1.615
-1.625
-1.62
-1.62
-1.62
-1.615
-1.615
-1.615
-1.615
-1.615
-1.615
-1.615
-1.61
-1.61
-1.615
-1.625
-1.615
-1.59
-1.575
-1.555
-1.55
-1.54
-1.54
-1.53
-1.53
-1.53
-1.525
-1.51
-1.5
-1.505
-1.495
-1.5
-1.495
-1.495
-1.505
-1.51
-1.515
-1.53
-1.54
-1.56
-1.595
-1.62
-1.65
-1.665
-1.65
-1.65
-1.645
-1.65
-1.665
-1.66
-1.66
-1.65
-1.66
-1.67
-1.66
-1.645
-1.625
-1.62
-1.63
-1.63
-1.625
-1.62
-1.615
-1.595
-1.555
-1.43
-1.245
-1.02
-0.795
-0.545
-0.31
-0.225
-0.4
-0.835
-1.475
-2.125
-2.445
-2.385
-2.13
-1.885
-1.715
-1.65
-1.625
-1.61
-1.6
-1.6
-1.58
-1.58
-1.58
-1.58
-1.58
-1.56
-1.56
-1.565
-1.56
-1.555
-1.54
-1.545
-1.54
-1.545
-1.54
-1.535
-1.525
-1.525
-1.51
-1.52
-1.51
-1.51
-1.505
-1.495
-1.47
-1.47
-1.47
-1.47
-1.46
-1.46
-1.445
-1.42
-1.405
-1.385
-1.375
-1.375
-1.365
-1.355
-1.34
-1.33
-1.32
-1.325
-1.32
-1.315
-1.3
-1.29
-1.27
-1.285
-1.285
-1.285
-1.29
-1.285
-1.29
-1.29
-1.295
-1.29
-1.285
-1.29
-1.285
-1.29
-1.285
-1.285
-1.285
-1.31
-1.335
-1.355
-1.375
-1.395
-1.405
-1.43
-1.45
-1.48
-1.51
-1.525
-1.53
-1.55
-1.56
-1.585
-1.58
-1.57
-1.56
-1.565
-1.59
-1.595
-1.59
-1.59
-1.595
-1.6
-1.62
-1.61
-1.605
-1.595
-1.595
-1.61
-1.595
-1.595
-1.595
-1.595
-1.6
-1.59
-1.59
-1.595
-1.61
-1.61
-1.595
-1.6
-1.6
-1.61
-1.61
-1.62
-1.61
-1.61
-1.61
-1.615
-1.625
-1.63
-1.625
-1.63
-1.62
-1.615
-1.625
-1.615
-1.615
-1.615
-1.61
-1.61
-1.6
-1.61
-1.62
-1.635
-1.63
-1.63
-1.63
-1.625
-1.615
-1.625
-1.595
-1.59
-1.585
-1.58
-1.575
-1.56
-1.55
-1.56
-1.56
-1.56
-1.545
-1.545
-1.545
-1.545
-1.545
-1.53
-1.525
-1.51
-1.52
-1.53
-1.54
-1.545
-1.56
-1.575
-1.59
-1.615
-1.64
-1.65
-1.65
-1.645
-1.66
-1.68
-1.68
-1.67
-1.665
-1.665
-1.665
-1.67
-1.665
-1.65
-1.645
-1.65
-1.635
-1.635
-1.625
-1.63
-1.645
-1.625
-1.575
-1.445
-1.255
-1.035
-0.78
-0.51
-0.24
-0.045
-0.05
-0.36
-0.87
-1.525
-2.125
-2.445
-2.4
-2.165
-1.91
-1.75
-1.68
-1.66
-1.65
-1.63
-1.605
-1.595
-1.595
-1.595
-1.59
-1.575
-1.565
-1.575
-1.58
-1.585
-1.575
-1.56
-1.56
-1.585
-1.58
-1.565
-1.56
-1.565
-1.58
-1.565
-1.555
-1.54
-1.53
-1.53
-1.52
-1.51
-1.51
-1.505
-1.495
-1.475
-1.46
-1.445
-1.43
-1.41
-1.405
-1.405
-1.395
-1.395
-1.385
-1.365
-1.35
-1.33
-1.32
-1.32
-1.315
-1.315
-1.315
-1.3
-1.3
-1.29
-1.285
-1.285
-1.29
-1.3
-1.3
-1.3
-1.29
-1.285
-1.285
-1.285
-1.285
-1.31
-1.32
-1.345
-1.35
-1.345
-1.375
-1.395
-1.425
-1.445
-1.46
-1.48
-1.5
-1.51
-1.53
-1.55
-1.565
-1.575
-1.575
-1.575
-1.585
-1.595
-1.61
-1.6
-1.6
-1.595
-1.595
-1.595
-1.595
-1.6
-1.6
-1.61
-1.61
-1.615
-1.61
-1.6
-1.595
-1.59
-1.59
-1.59
-1.6
-1.61
-1.63
-1.61
-1.61
-1.61
-1.61
-1.62
-1.6
-1.61
-1.615
-1.62
-1.635
-1.63
-1.625
-1.625
-1.625
-1.625
-1.62
-1.62
-1.62
-1.62
-1.63
-1.635
-1.635
-1.63
-1.63
-1.62
-1.625
-1.63
-1.625
-1.62
-1.615
-1.63
-1.645
-1.645
-1.65
-1.645
-1.645
-1.63
-1.63
-1.625
-1.62
-1.61
-1.595
-1.585
-1.575
-1.56
-1.555
-1.565
-1.56
-1.575
-1.56
-1.56
-1.555
-1.545
-1.545
-1.54
-1.525
-1.51
-1.525
-1.54
-1.545
-1.56
-1.58
-1.61
-1.63
-1.645
-1.655
-1.665
-1.68
-1.68
-1.68
-1.68
-1.68
-1.68
-1.68
-1.665
-1.66
-1.66
-1.665
-1.665
-1.665
-1.66
-1.645
-1.65
-1.64
-1.645
-1.65
-1.655
-1.63
-1.56
-1.35
-1.065
-0.7
-0.285
0.11
0.32
0.215
-0.215
-0.885
-1.685
-2.215
-2.285
-2.09
-1.87
-1.73
-1.68
-1.67
-1.66
-1.65
-1.645
-1.645
-1.645
-1.65
-1.65
-1.645
-1.645
-1.645
-1.645
-1.63
-1.62
-1.615
-1.61
-1.6
-1.615
-1.61
-1.61
-1.595
-1.595
-1.59
-1.58
-1.575
-1.59
-1.565
-1.575
-1.565
-1.56
-1.56
-1.55
-1.535
-1.53
-1.525
-1.505
-1.495
-1.49
-1.47
-1.455
-1.43
-1.415
-1.405
-1.385
-1.36
-1.35
-1.34
-1.335
-1.335
-1.33
-1.33
-1.315
-1.29
-1.3
-1.3
-1.305
-1.29
-1.285
-1.285
-1.285
-1.29
-1.29
-1.285
-1.3
-1.295
-1.31
-1.31
-1.335
-1.355
-1.365
-1.39
-1.415
-1.435
-1.475
-1.505
-1.53
-1.55
-1.565
-1.575
-1.575
-1.575
-1.575
-1.59
-1.595
-1.61
-1.615
-1.61
-1.615
-1.61
-1.615
-1.62
-1.635
-1.645
-1.65
-1.65
-1.645
-1.645
-1.64
-1.64
-1.645
-1.65
-1.655
-1.66
-1.66
-1.665
-1.665
-1.665
-1.65
-1.65
-1.645
-1.645
-1.645
-1.645
-1.65
-1.655
-1.65
-1.65
-1.65
-1.645
-1.65
-1.63
-1.645
-1.65
-1.67
-1.68
-1.665
-1.66
-1.65
-1.66
-1.665
-1.665
-1.67
-1.665
-1.66
-1.66
-1.65
-1.65
-1.65
-1.66
-1.66
-1.665
-1.66
-1.66
-1.66
-1.65
-1.63
-1.62
-1.615
-1.615
-1.595
-1.58
-1.56
-1.56
-1.565
-1.575
-1.59
-1.595
-1.59
-1.59
-1.575
-1.565
-1.575
-1.56
-1.57
-1.565
-1.565
-1.575
-1.585
-1.605
-1.63
-1.665
-1.68
-1.68
-1.685
-1.69
-1.695
-1.7
-1.71
-1.705
-1.71
-1.7
-1.69
-1.68
-1.685
-1.68
-1.69
-1.68
-1.68
-1.68
-1.68
-1.685
-1.695
-1.68
-1.62
-1.47
-1.23
-0.905
-0.5
-0.09
0.24
0.315
0.06
-0.46
-1.18
-1.905
-2.275
-2.245
-2.025
-1.83
-1.715
-1.69
-1.69
-1.695
-1.705
-1.69
-1.68
-1.665
-1.65
-1.65
-1.65
-1.635
-1.625
-1.615
-1.615
-1.615
-1.615
-1.615
-1.62
-1.62
-1.62
-1.615
-1.615
-1.61
-1.59
-1.59
-1.59
-1.605
-1.595
-1.58
-1.56
-1.555
-1.54
-1.54
-1.53
-1.5
-1.46
-1.46
-1.45
-1.455
-1.46
-1.44
-1.435
-1.41
-1.395
-1.385
-1.375
-1.37
-1.35
-1.35
-1.345
-1.335
-1.315
-1.3
-1.3
-1.305
-1.305
-1.3
-1.28
-1.275
-1.27
-1.285
-1.3
-1.3
-1.295
-1.295
-1.3
-1.29
-1.29
-1.315
-1.36
-1.4
-1.425
-1.44
-1.46
-1.475
-1.51
-1.53
-1.55
-1.565
-1.58
-1.575
-1.585
-1.595
-1.595
-1.595
-1.61
-1.615
-1.64
-1.645
-1.635
-1.625
-1.62
-1.63
-1.655
-1.675
-1.675
-1.665
-1.665
-1.665
-1.66
-1.66
-1.665
-1.66
-1.665
-1.655
-1.65
-1.645
-1.645
-1.63
-1.625
-1.635
-1.655
-1.665
-1.665
-1.66
-1.655
-1.65
-1.635
-1.645
-1.67
-1.68
-1.665
-1.645
-1.645
-1.665
-1.68
-1.68
-1.675
-1.66
-1.66
-1.645
-1.645
-1.645
-1.655
-1.67
-1.68
-1.68
-1.68
-1.665
-1.645
-1.615
-1.61
-1.6
-1.595
-1.58
-1.58
-1.58
-1.59
-1.595
-1.59
-1.58
-1.58
-1.56
-1.555
-1.54
-1.54
-1.54
-1.55
-1.56
-1.575
-1.59
-1.61
-1.615
-1.63
-1.65
-1.68
-1.71
-1.71
-1.7
-1.69
-1.68
-1.7
-1.68
-1.69
-1.71
-1.71
-1.71
-1.695
-1.68
-1.68
-1.68
-1.69
-1.68
-1.675
-1.665
-1.68
-1.66
-1.6
-1.44
-1.245
-1.035
-0.79
-0.53
-0.305
-0.255
-0.5
-1.01
-1.71
-2.295
-2.485
-2.315
-2.045
-1.835
-1.725
-1.68
-1.67
-1.66
-1.65
-1.64
-1.625
-1.625
-1.62
-1.63
-1.645
-1.615
-1.605
-1.595
-1.61
-1.63
-1.62
-1.615
-1.605
-1.59
-1.59
-1.575
-1.585
-1.585
-1.585
-1.58
-1.565
-1.56
-1.545
-1.545
-1.54
-1.54
-1.54
-1.53
-1.51
-1.495
-1.47
-1.465
-1.465
-1.445
-1.44
-1.43
-1.43
-1.41
-1.395
-1.385
-1.37
-1.36
-1.355
-1.365
-1.365
-1.35
-1.325
-1.34
-1.345
-1.35
-1.36
-1.345
-1.345
-1.345
-1.35
-1.35
-1.35
-1.35
-1.35
-1.35
-1.355
-1.36
-1.375
-1.385
-1.395
-1.405
-1.43
-1.45
-1.47
-1.5
-1.525
-1.54
-1.56
-1.57
-1.565
-1.58
-1.585
-1.6
-1.63
-1.625
-1.62
-1.62
-1.625
-1.63
-1.645
-1.645
-1.645
-1.645
-1.63
-1.635
-1.63
-1.63
-1.645
-1.66
-1.645
-1.645
-1.645
-1.65
-1.65
-1.65
-1.65
-1.645
-1.65
-1.65
-1.645
-1.645
-1.65
-1.64
-1.635
-1.64
-1.635
-1.65
-1.65
-1.65
-1.65
-1.645
-1.645
-1.645
-1.645
-1.65
-1.66
-1.675
-1.675
-1.665
-1.66
-1.66
-1.665
-1.66
-1.67
-1.665
-1.66
-1.66
-1.65
-1.655
-1.655
-1.67
-1.655
-1.645
-1.625
-1.61
-1.625
-1.62
-1.61
-1.59
-1.58
-1.575
-1.565
-1.575
-1.575
-1.575
-1.585
-1.575
-1.565
-1.555
-1.555
-1.56
-1.565
-1.575
-1.575
-1.58
-1.58
-1.595
-1.62
-1.63
-1.645
-1.65
-1.665
-1.68
-1.68
-1.69
-1.685
-1.695
-1.695
-1.68
-1.68
-1.665
-1.68
-1.7
-1.68
-1.68
-1.68
-1.67
-1.68
-1.67
-1.665
-1.665
-1.635
-1.54
-1.36
-1.1
-0.79
-0.44
-0.09
0.1
0.015
-0.36
-0.955
-1.695
-2.22
-2.33
-2.14
-1.895
-1.74
-1.675
-1.665
-1.675
-1.67
-1.665
-1.645
-1.645
-1.63
-1.62
-1.625
-1.62
-1.61
-1.61
-1.61
-1.61
-1.615
-1.61
-1.61
-1.595
-1.595
-1.58
-1.59
-1.575
-1.585
-1.59
-1.58
-1.575
-1.56
-1.555
-1.56
-1.555
-1.56
-1.54
-1.52
-1.505
-1.495
-1.475
-1.47
-1.45
-1.435
-1.415
-1.405
-1.405
-1.395
-1.39
-1.38
-1.37
-1.35
-1.335
-1.325
-1.32
-1.325
-1.32
-1.32
-1.32
-1.315
-1.305
-1.3
-1.29
-1.295
-1.29
-1.29
-1.3
-1.29
-1.315
-1.32
-1.33
-1.34
-1.34
-1.375
-1.39
-1.405
-1.435
-1.46
-1.495
-1.52
-1.525
-1.545
-1.56
-1.575
-1.575
-1.58
-1.58
-1.58
-1.585
-1.595
-1.595
-1.61
-1.615
-1.63
-1.63
-1.635
-1.63
-1.62
-1.615
-1.625
-1.63
-1.645
-1.63
-1.63
-1.62
-1.62
-1.63
-1.635
-1.645
-1.66
-1.65
-1.645
-1.635
-1.635
-1.645
-1.625
-1.63
-1.625
-1.63
-1.645
-1.65
-1.65
-1.65
-1.65
-1.645
-1.625
-1.625
-1.635
-1.65
-1.655
-1.655
-1.655
-1.65
-1.65
-1.635
-1.63
-1.63
-1.635
-1.64
-1.65
-1.66
-1.665
-1.66
-1.65
-1.63
-1.625
-1.62
-1.63
-1.625
-1.62
-1.59
-1.56
-1.545
-1.555
-1.56
-1.565
-1.59
-1.565
-1.56
-1.555
-1.545
-1.555
-1.545
-1.545
-1.545
-1.55
-1.555
-1.55
-1.56
-1.585
-1.61
-1.635
-1.645
-1.66
-1.665
-1.665
-1.67
-1.68
-1.665
-1.67
-1.68
-1.68
-1.68
-1.68
-1.68
-1.68
-1.68
-1.675
-1.655
-1.665
-1.665
-1.68
-1.665
-1.665
-1.665
-1.625
-1.505
-1.29
-0.98
-0.645
-0.255
0.135
0.32
0.2
-0.265
-0.995
-1.785
-2.225
-2.23
-2.01
-1.815
-1.71
-1.665
-1.665
-1.665
-1.665
-1.66
-1.65
-1.63
-1.63
-1.62
-1.615
-1.615
-1.61
-1.605
-1.6
-1.595
-1.6
-1.6
-1.6
-1.615
-1.6
-1.595
-1.58
-1.58
-1.585
-1.59
-1.575
-1.565
-1.56
-1.54
-1.54
-1.53
-1.53
-1.515
-1.495
-1.495
-1.475
-1.465
-1.45
-1.43
-1.425
-1.405
-1.405
-1.385
-1.375
-1.375
-1.37
-1.36
-1.345
-1.34
-1.335
-1.325
-1.31
-1.3
-1.295
-1.3
-1.31
-1.315
-1.31
-1.31
-1.29
-1.28
-1.275
-1.285
-1.29
-1.29
-1.305
-1.31
-1.325
-1.34
-1.36
-1.395
-1.43
-1.445
-1.475
-1.5
-1.53
-1.53
-1.54
-1.55
-1.555
-1.575
-1.575
-1.58
-1.59
-1.59
-1.6
-1.605
-1.6
-1.595
-1.605
-1.595
-1.595
-1.595
-1.61
-1.615
-1.62
-1.615
-1.615
-1.615
-1.635
-1.64
-1.64
-1.625
-1.635
-1.645
-1.64
-1.635
-1.63
-1.625
-1.62
-1.63
-1.635
-1.63
-1.625
-1.62
-1.615
-1.615
-1.64
-1.63
-1.63
-1.63
-1.62
-1.63
-1.615
-1.615
-1.62
-1.635
-1.635
-1.63
-1.63
-1.64
-1.645
-1.645
-1.63
-1.635
-1.63
-1.63
-1.64
-1.645
-1.65
-1.645
-1.635
-1.625
-1.6
-1.59
-1.585
-1.575
-1.56
-1.55
-1.55
-1.53
-1.545
-1.555
-1.56
-1.545
-1.53
-1.52
-1.52
-1.515
-1.51
-1.51
-1.52
-1.53
-1.54
-1.56
-1.565
-1.58
-1.59
-1.62
-1.65
-1.65
-1.65
-1.65
-1.65
-1.655
-1.66
-1.675
-1.665
-1.655
-1.65
-1.655
-1.665
-1.655
-1.655
-1.66
-1.655
-1.645
-1.64
-1.63
-1.63
-1.63
-1.58
-1.46
-1.285
-1.06
-0.77
-0.465
-0.165
-0.065
-0.285
-0.775
-1.5
-2.135
-2.415
-2.315
-2.045
-1.83
-1.7
-1.66
-1.645
-1.63
-1.645
-1.615
-1.615
-1.615
-1.61
-1.595
-1.58
-1.56
-1.565
-1.56
-1.58
-1.58
-1.58
-1.575
-1.57
-1.56
-1.555
-1.545
-1.545
-1.55
-1.545
-1.545
-1.535
-1.525
-1.51
-1.51
-1.52
-1.53
-1.505
-1.475
-1.47
-1.445
-1.43
-1.42
-1.41
-1.42
-1.405
-1.385
-1.375
-1.36
-1.36
-1.355
-1.335
-1.325
-1.315
-1.31
-1.32
-1.325
-1.34
-1.325
-1.32
-1.325
-1.325
-1.335
-1.325
-1.32
-1.32
-1.305
-1.31
-1.31
-1.315
-1.315
-1.315
-1.315
-1.325
-1.345
-1.365
-1.375
-1.385
-1.405
-1.43
-1.455
-1.5
-1.51
-1.53
-1.545
-1.555
-1.56
-1.58
-1.58
-1.585
-1.58
-1.57
-1.58
-1.6
-1.59
-1.59
-1.6
-1.615
-1.625
-1.62
-1.615
-1.62
-1.62
-1.62
-1.615
-1.62
-1.62
-1.62
-1.615
-1.61
-1.615
-1.62
-1.625
-1.61
-1.595
-1.6
-1.61
-1.625
-1.63
-1.62
-1.62
-1.615
-1.62
-1.625
-1.63
-1.63
-1.65
-1.66
-1.65
-1.65
-1.645
-1.63
-1.63
-1.63
-1.63
-1.65
-1.645
-1.65
-1.64
-1.63
-1.635
-1.625
-1.615
-1.6
-1.59
-1.58
-1.575
-1.575
-1.575
-1.575
-1.575
-1.565
-1.555
-1.545
-1.545
-1.545
-1.535
-1.525
-1.525
-1.525
-1.53
-1.545
-1.56
-1.575
-1.59
-1.615
-1.625
-1.65
-1.645
-1.67
-1.68
-1.69
-1.68
-1.68
-1.68
-1.68
-1.67
-1.665
-1.67
-1.68
-1.67
-1.67
-1.68
-1.665
-1.665
-1.66
-1.645
-1.645
-1.635
-1.615
-1.53
-1.375
-1.18
-0.975
-0.74
-0.5
-0.31
-0.255
-0.455
-0.875
-1.5
-2.115
-2.485
-2.435
-2.18
-1.92
-1.75
-1.67
-1.655
-1.65
-1.63
-1.62
-1.595
-1.595
-1.61
-1.595
-1.59
-1.58
-1.59
-1.59
-1.585
-1.59
-1.59
-1.59
-1.6
-1.575
-1.575
-1.575
-1.585
-1.59
-1.56
-1.545
-1.54
-1.545
-1.54
-1.53
-1.52
-1.515
-1.505
-1.5
-1.495
-1.485
-1.475
-1.45
-1.44
-1.435
-1.435
-1.415
-1.405
-1.4
-1.38
-1.365
-1.355
-1.35
-1.35
-1.35
-1.365
-1.37
-1.375
-1.385
-1.385
-1.375
-1.375
-1.375
-1.375
-1.375
-1.36
-1.375
-1.37
-1.375
-1.375
-1.365
-1.385
-1.385
-1.4
-1.4
-1.4
-1.425
-1.435
-1.45
-1.46
-1.48
-1.51
-1.53
-1.545
-1.56
-1.56
-1.565
-1.58
-1.595
-1.61
-1.62
-1.625
-1.62
-1.615
-1.61
-1.625
-1.635
-1.625
-1.62
-1.615
-1.625
-1.63
-1.645
-1.635
-1.635
-1.63
-1.63
-1.625
-1.625
-1.62
-1.625
-1.63
-1.645
-1.615
-1.615
-1.615
-1.625
-1.645
-1.645
-1.645
-1.63
-1.63
-1.63
-1.635
-1.645
-1.65
-1.65
-1.65
-1.645
-1.63
-1.635
-1.63
-1.645
-1.65
-1.645
-1.645
-1.645
-1.63
-1.635
-1.65
-1.65
-1.63
-1.62
-1.61
-1.605
-1.58
-1.57
-1.565
-1.565
-1.555
-1.545
-1.545
-1.56
-1.56
-1.585
-1.565
-1.56
-1.55
-1.54
-1.555
-1.555
-1.56
-1.55
-1.56
-1.575
-1.59
-1.615
-1.64
-1.66
-1.665
-1.67
-1.665
-1.675
-1.68
-1.68
-1.68
-1.68
-1.68
-1.69
-1.685
-1.68
-1.68
-1.685
-1.69
-1.68
-1.665
-1.675
-1.65
-1.65
-1.66
-1.65
-1.6
-1.475
-1.31
-1.105
-0.845
-0.515
-0.2
0.005
-0.035
-0.375
-0.955
-1.68
-2.245
-2.38
-2.18
-1.935
-1.77
-1.705
-1.68
-1.67
-1.655
-1.645
-1.63
-1.625
-1.63
-1.65
-1.645
-1.63
-1.62
-1.605
-1.59
-1.595
-1.615
-1.63
-1.63
-1.62
-1.61
-1.6
-1.595
-1.595
-1.595
-1.595
-1.59
-1.575
-1.56
-1.55
-1.545
-1.545
-1.54
-1.54
-1.53
-1.525
-1.495
-1.505
-1.495
-1.48
-1.45
-1.42
-1.405
-1.415
-1.42
-1.415
-1.395
-1.385
-1.375
-1.375
-1.375
-1.375
-1.36
-1.345
-1.345
-1.345
-1.35
-1.35
-1.355
-1.365
-1.36
-1.35
-1.345
-1.345
-1.35
-1.345
-1.35
-1.355
-1.375
-1.395
-1.405
-1.41
-1.42
-1.445
-1.46
-1.49
-1.51
-1.525
-1.555
-1.56
-1.565
-1.58
-1.58
-1.61
-1.595
-1.615
-1.625
-1.635
-1.635
-1.63
-1.625
-1.62
-1.615
-1.63
-1.645
-1.65
-1.645
-1.645
-1.645
-1.645
-1.645
-1.65
-1.645
-1.645
-1.635
-1.63
-1.635
-1.63
-1.625
-1.62
-1.625
-1.62
-1.63
-1.645
-1.645
-1.645
-1.64
-1.635
-1.625
-1.625
-1.62
-1.63
-1.64
-1.65
-1.645
-1.655
-1.65
-1.645
-1.65
-1.645
-1.65
-1.63
-1.625
-1.63
-1.63
-1.635
-1.65
-1.645
-1.645
-1.635
-1.63
-1.62
-1.6
-1.585
-1.575
-1.575
-1.565
-1.565
-1.56
-1.56
-1.555
-1.55
-1.545
-1.545
-1.54
-1.54
-1.54
-1.545
-1.54
-1.53
-1.53
-1.56
-1.58
-1.615
-1.63
-1.65
-1.65
-1.665
-1.665
-1.68
-1.68
-1.685
-1.7
-1.68
-1.68
-1.68
-1.67
-1.67
-1.665
-1.665
-1.65
-1.645
-1.65
-1.65
-1.655
-1.665
-1.68
-1.68
-1.645
-1.535
-1.325
-1.02
-0.65
-0.245
0.125
0.305
0.175
-0.225
-0.855
-1.61
-2.13
-2.255
-2.095
-1.88
-1.735
-1.67
-1.66
-1.665
-1.665
-1.655
-1.65
-1.645
-1.63
-1.63
-1.635
-1.615
-1.595
-1.595
-1.595
-1.61
-1.615
-1.615
-1.61
-1.61
-1.615
-1.61
-1.595
-1.585
-1.565
-1.56
-1.56
-1.57
-1.575
-1.58
-1.57
-1.56
-1.545
-1.54
-1.53
-1.52
-1.505
-1.495
-1.475
-1.47
-1.45
-1.43
-1.415
-1.405
-1.4
-1.39
-1.375
-1.375
-1.375
-1.365
-1.35
-1.33
-1.315
-1.325
-1.32
-1.32
-1.325
-1.325
-1.34
-1.335
-1.315
-1.295
-1.29
-1.31
-1.315
-1.315
-1.305
-1.31
-1.315
-1.33
-1.34
-1.345
-1.36
-1.375
-1.405
-1.415
-1.43
-1.45
-1.465
-1.495
-1.515
-1.54
-1.545
-1.56
-1.565
-1.565
-1.575
-1.575
-1.585
-1.59
-1.595
-1.59
-1.585
-1.59
-1.61
-1.595
-1.61
-1.615
-1.615
-1.625
-1.61
-1.615
-1.61
-1.62
-1.615
-1.62
-1.615
-1.62
-1.625
-1.62
-1.61
-1.62
-1.615
-1.615
-1.61
-1.61
-1.615
-1.615
-1.62
-1.62
-1.625
-1.625
-1.61
-1.6
-1.61
-1.62
-1.63
-1.615
-1.615
-1.61
-1.62
-1.62
-1.63
-1.635
-1.63
-1.635
-1.63
-1.63
-1.625
-1.605
-1.58
-1.575
-1.56
-1.56
-1.545
-1.54
-1.55
-1.545
-1.545
-1.545
-1.545
-1.54
-1.53
-1.525
-1.525
-1.51
-1.52
-1.53
-1.53
-1.54
-1.55
-1.565
-1.58
-1.595
-1.61
-1.635
-1.645
-1.65
-1.655
-1.67
-1.68
-1.68
-1.68
-1.665
-1.665
-1.68
-1.68
-1.68
-1.675
-1.67
-1.67
-1.665
-1.66
-1.665
-1.65
-1.65
-1.645
-1.65
-1.645
-1.55
-1.385
-1.14
-0.855
-0.505
-0.155
0.03
-0.08
-0.485
-1.13
-1.835
-2.285
-2.325
-2.105
-1.865
-1.72
-1.655
-1.645
-1.645
-1.635
-1.63
-1.615
-1.61
-1.595
-1.6
-1.615
-1.615
-1.62
-1.615
-1.595
-1.59
-1.59
-1.59
-1.595
-1.58
-1.58
-1.58
-1.565
-1.56
-1.545
-1.54
-1.54
-1.53
-1.53
-1.53
-1.525
-1.505
-1.505
-1.495
-1.5
-1.495
-1.485
-1.47
-1.45
-1.45
-1.435
-1.425
-1.405
-1.39
-1.375
-1.365
-1.355
-1.345
-1.345
-1.345
-1.34
-1.335
-1.325
-1.32
-1.315
-1.31
-1.3
-1.295
-1.315
-1.33
-1.325
-1.315
-1.295
-1.3
-1.29
-1.285
-1.285
-1.3
-1.295
-1.33
-1.34
-1.36
-1.37
-1.365
-1.405
-1.425
-1.46
-1.49
-1.5
-1.51
-1.515
-1.52
-1.525
-1.535
-1.55
-1.57
-1.575
-1.585
-1.59
-1.59
-1.61
-1.61
-1.615
-1.59
-1.59
-1.595
-1.61
-1.62
-1.62
-1.625
-1.615
-1.615
-1.595
-1.59
-1.585
-1.59
-1.595
-1.595
-1.595
-1.595
-1.615
-1.615
-1.62
-1.62
-1.615
-1.62
-1.61
-1.615
-1.635
-1.625
-1.625
-1.615
-1.615
-1.61
-1.615
-1.615
-1.615
-1.62
-1.615
-1.62
-1.615
-1.62
-1.615
-1.615
-1.615
-1.6
-1.595
-1.565
-1.53
-1.51
-1.52
-1.54
-1.55
-1.55
-1.545
-1.54
-1.53
-1.515
-1.51
-1.495
-1.495
-1.49
-1.51
-1.53
-1.545
-1.55
-1.56
-1.585
-1.59
-1.62
-1.635
-1.65
-1.665
-1.665
-1.665
-1.665
-1.68
-1.68
-1.67
-1.66
-1.65
-1.645
-1.645
-1.65
-1.65
-1.65
-1.65
-1.65
-1.65
-1.65
-1.65
-1.635
-1.595
-1.52
-1.375
-1.205
-1.01
-0.78
-0.55
-0.38
-0.39
-0.68
-1.185
-1.8
-2.31
-2.485
-2.33
-2.065
-1.85
-1.725
-1.665
-1.65
-1.63
-1.62
-1.62
-1.605
-1.605
-1.6
-1.59
-1.585
-1.58
-1.58
-1.575
-1.565
-1.56
-1.56
-1.565
-1.56
-1.555
-1.54
-1.53
-1.53
-1.54
-1.545
-1.545
-1.54
-1.54
-1.54
-1.53
-1.515
-1.5
-1.485
-1.485
-1.48
-1.47
-1.45
-1.445
-1.44
-1.43
-1.415
-1.4
-1.375
-1.375
-1.38
-1.375
-1.36
-1.33
-1.345
-1.33
-1.345
-1.35
-1.35
-1.345
-1.345
-1.35
-1.36
-1.365
-1.36
-1.35
-1.355
-1.355
-1.355
-1.345
-1.335
-1.34
-1.34
-1.35
-1.36
-1.355
-1.375
-1.39
-1.405
-1.405
-1.415
-1.435
-1.45
-1.485
-1.5
-1.53
-1.54
-1.545
-1.535
-1.53
-1.54
-1.55
-1.56
-1.56
-1.56
-1.59
-1.59
-1.59
-1.59
-1.59
-1.595
-1.595
-1.615
-1.615
-1.595
-1.59
-1.59
-1.59
-1.6
-1.595
-1.6
-1.59
-1.595
-1.595
-1.595
-1.595
-1.595
-1.595
-1.58
-1.575
-1.58
-1.595
-1.615
-1.625
-1.62
-1.615
-1.615
-1.605
-1.61
-1.61
-1.6
-1.61
-1.61
-1.6
-1.595
-1.595
-1.61
-1.625
-1.61
-1.6
-1.595
-1.58
-1.565
-1.54
-1.525
-1.53
-1.55
-1.555
-1.54
-1.53
-1.525
-1.52
-1.505
-1.495
-1.49
-1.49
-1.495
-1.51
-1.53
-1.54
-1.545
-1.555
-1.565
-1.59
-1.6
-1.61
-1.63
-1.65
-1.66
-1.665
-1.66
-1.665
-1.66
-1.65
-1.645
-1.63
-1.645
-1.645
-1.65
-1.65
-1.645
-1.645
-1.655
-1.655
-1.665
-1.645
-1.635
-1.63
-1.615
-1.56
-1.44
-1.275
-1.055
-0.79
-0.465
-0.19
-0.115
-0.35
-0.855
-1.565
-2.175
-2.4
-2.255
-1.985
-1.785
-1.68
-1.65
-1.65
-1.645
-1.63
-1.62
-1.61
-1.6
-1.6
-1.595
-1.595
-1.595
-1.6
-1.595
-1.59
-1.59
-1.585
-1.58
-1.58
-1.58
-1.57
-1.59
-1.575
-1.58
-1.58
-1.565
-1.575
-1.545
-1.54
-1.53
-1.53
-1.525
-1.505
-1.495
-1.5
-1.505
-1.495
-1.485
-1.46
-1.44
-1.425
-1.415
-1.41
-1.405
-1.39
-1.385
-1.385
-1.375
-1.355
-1.345
-1.345
-1.35
-1.36
-1.36
-1.35
-1.35
-1.35
-1.35
-1.35
-1.345
-1.34
-1.345
-1.34
-1.325
-1.34
-1.34
-1.345
-1.35
-1.35
-1.375
-1.375
-1.375
-1.375
-1.395
-1.435
-1.475
-1.52
-1.535
-1.555
-1.56
-1.57
-1.58
-1.575
-1.575
-1.56
-1.565
-1.58
-1.59
-1.61
-1.615
-1.62
-1.62
-1.62
-1.61
-1.595
-1.61
-1.595
-1.6
-1.595
-1.615
-1.615
-1.615
-1.61
-1.595
-1.6
-1.6
-1.615
-1.615
-1.61
-1.605
-1.615
-1.595
-1.59
-1.59
-1.59
-1.595
-1.59
-1.605
-1.605
-1.615
-1.615
-1.63
-1.625
-1.62
-1.62
-1.62
-1.625
-1.615
-1.615
-1.6
-1.59
-1.59
-1.595
-1.61
-1.61
-1.59
-1.575
-1.56
-1.56
-1.545
-1.54
-1.54
-1.535
-1.54
-1.54
-1.53
-1.53
-1.525
-1.53
-1.53
-1.52
-1.505
-1.495
-1.515
-1.53
-1.535
-1.555
-1.565
-1.575
-1.59
-1.615
-1.635
-1.65
-1.655
-1.65
-1.655
-1.665
-1.665
-1.66
-1.67
-1.665
-1.67
-1.65
-1.65
-1.65
-1.65
-1.645
-1.645
-1.63
-1.63
-1.62
-1.62
-1.63
-1.635
-1.605
-1.48
-1.28
-0.995
-0.665
-0.29
0.05
0.18
0.02
-0.405
-1.055
-1.77
-2.215
-2.26
-2.055
-1.835
-1.7
-1.66
-1.65
-1.65
-1.635
-1.625
-1.625
-1.62
-1.615
-1.615
-1.615
-1.615
-1.61
-1.6
-1.59
-1.595
-1.595
-1.595
-1.58
-1.56
-1.56
-1.555
-1.56
-1.575
-1.58
-1.585
-1.58
-1.565
-1.56
-1.555
-1.55
-1.54
-1.525
-1.51
-1.5
-1.49
-1.485
-1.48
-1.46
-1.45
-1.44
-1.415
-1.425
-1.4
-1.385
-1.37
-1.36
-1.37
-1.35
-1.345
-1.34
-1.335
-1.345
-1.345
-1.325
-1.315
-1.315
-1.315
-1.32
-1.32
-1.305
-1.31
-1.305
-1.31
-1.305
-1.3
-1.295
-1.295
-1.3
-1.305
-1.32
-1.35
-1.38
-1.415
-1.435
-1.44
-1.455
-1.47
-1.495
-1.51
-1.53
-1.53
-1.545
-1.555
-1.53
-1.54
-1.55
-1.575
-1.61
-1.6
-1.585
-1.575
-1.58
-1.59
-1.595
-1.61
-1.61
-1.62
-1.62
-1.625
-1.62
-1.615
-1.615
-1.62
-1.615
-1.62
-1.615
-1.615
-1.61
-1.615
-1.61
-1.6
-1.6
-1.61
-1.62
-1.625
-1.615
-1.62
-1.62
-1.62
-1.62
-1.62
-1.615
-1.62
-1.62
-1.62
-1.61
-1.6
-1.61
-1.62
-1.645
-1.63
-1.62
-1.62
-1.62
-1.625
-1.59
-1.575
-1.56
-1.56
-1.56
-1.555
-1.555
-1.55
-1.54
-1.53
-1.53
-1.53
-1.53
-1.53
-1.53
-1.51
-1.505
-1.505
-1.505
-1.515
-1.52
-1.54
-1.56
-1.585
-1.61
-1.635
-1.65
-1.66
-1.665
-1.66
-1.66
-1.665
-1.66
-1.66
-1.66
-1.665
-1.68
-1.675
-1.67
-1.665
-1.65
-1.665
-1.66
-1.66
-1.65
-1.65
-1.665
-1.665
-1.63
-1.53
-1.36
-1.15
-0.89
-0.605
-0.295
-0.105
-0.12
-0.405
-0.905
-1.56
-2.095
-2.305
-2.195
-2.01
-1.835
-1.74
-1.68
-1.67
-1.66
-1.655
-1.65
-1.625
-1.61
-1.615
-1.615
-1.62
-1.595
-1.595
-1.615
-1.6
-1.61
-1.595
-1.58
-1.59
-1.58
-1.595
-1.59
-1.58
-1.575
-1.575
-1.575
-1.57
-1.555
-1.55
-1.545
-1.545
-1.535
-1.515
-1.505
-1.495
-1.495
-1.49
-1.475
-1.46
-1.435
-1.415
-1.405
-1.41
-1.42
-1.41
-1.395
-1.385
-1.375
-1.375
-1.36
-1.35
-1.33
-1.325
-1.33
-1.34
-1.35
-1.345
-1.33
-1.33
-1.335
-1.315
-1.32
-1.32
-1.315
-1.31
-1.295
-1.315
-1.325
-1.335
-1.345
-1.345
-1.36
-1.375
-1.41
-1.445
-1.47
-1.5
-1.51
-1.535
-1.545
-1.56
-1.56
-1.56
-1.56
-1.58
-1.585
-1.59
-1.59
-1.61
-1.625
-1.63
-1.635
-1.62
-1.615
-1.62
-1.625
-1.635
-1.625
-1.62
-1.62
-1.62
-1.625
-1.64
-1.63
-1.63
-1.62
-1.63
-1.645
-1.63
-1.63
-1.63
-1.625
-1.625
-1.625
-1.635
-1.63
-1.63
-1.625
-1.625
-1.625
-1.63
-1.645
-1.65
-1.65
-1.65
-1.635
-1.64
-1.63
-1.62
-1.625
-1.63
-1.63
-1.615
-1.595
-1.58
-1.555
-1.55
-1.555
-1.575
-1.58
-1.575
-1.56
-1.545
-1.53
-1.515
-1.515
-1.505
-1.505
-1.51
-1.545
-1.54
-1.555
-1.565
-1.59
-1.61
-1.61
-1.625
-1.65
-1.67
-1.695
-1.69
-1.685
-1.68
-1.68
-1.68
-1.675
-1.665
-1.66
-1.65
-1.665
-1.68
-1.68
-1.68
-1.68
-1.665
-1.66
-1.645
-1.625
-1.61
-1.555
-1.465
-1.31
-1.14
-0.96
-0.745
-0.525
-0.405
-0.5
-0.84
-1.405
-2.035
-2.455
-2.445
-2.21
-1.95
-1.77
-1.69
-1.655
-1.65
-1.645
-1.63
-1.625
-1.615
-1.6
-1.6
-1.595
-1.6
-1.595
-1.59
-1.575
-1.56
-1.56
-1.565
-1.58
-1.59
-1.575
-1.56
-1.56
-1.56
-1.555
-1.545
-1.54
-1.54
-1.54
-1.54
-1.54
-1.53
-1.53
-1.505
-1.49
-1.47
-1.47
-1.465
-1.44
-1.44
-1.425
-1.425
-1.41
-1.39
-1.39
-1.375
-1.365
-1.365
-1.37
-1.375
-1.365
-1.375
-1.37
-1.37
-1.36
-1.36
-1.37
-1.37
-1.375
-1.385
-1.39
-1.385
-1.37
-1.365
-1.37
-1.36
-1.36
-1.35
-1.36
-1.375
-1.385
-1.395
-1.405
-1.41
-1.43
-1.455
-1.485
-1.51
-1.53
-1.55
-1.56
-1.56
-1.57
-1.565
-1.575
-1.595
-1.59
-1.59
-1.58
-1.58
-1.59
-1.59
-1.61
-1.615
-1.615
-1.62
-1.61
-1.61
-1.6
-1.615
-1.615
-1.615
-1.615
-1.62
-1.615
-1.615
-1.615
-1.615
-1.615
-1.615
-1.61
-1.6
-1.595
-1.6
-1.615
-1.615
-1.615
-1.62
-1.63
-1.635
-1.645
-1.635
-1.63
-1.635
-1.645
-1.635
-1.635
-1.645
-1.62
-1.615
-1.61
-1.61
-1.625
-1.6
-1.585
-1.575
-1.56
-1.56
-1.555
-1.545
-1.54
-1.545
-1.56
-1.565
-1.56
-1.54
-1.525
-1.515
-1.515
-1.52
-1.53
-1.545
-1.545
-1.55
-1.56
-1.59
-1.615
-1.625
-1.645
-1.645
-1.645
-1.65
-1.66
-1.67
-1.665
-1.665
-1.665
-1.655
-1.65
-1.665
-1.655
-1.66
-1.66
-1.67
-1.67
-1.65
-1.65
-1.65
-1.655
-1.655
-1.62
-1.525
-1.375
-1.19
-0.98
-0.73
-0.455
-0.225
-0.165
-0.365
-0.79
-1.41
-2.035
-2.39
-2.375
-2.13
-1.885
-1.725
-1.67
-1.645
-1.65
-1.65
-1.635
-1.625
-1.615
-1.6
-1.61
-1.62
-1.615
-1.61
-1.595
-1.595
-1.595
-1.6
-1.61
-1.59
-1.6
-1.59
-1.58
-1.575
-1.56
-1.575
-1.565
-1.575
-1.565
-1.565
-1.55
-1.54
-1.53
-1.525
-1.51
-1.5
-1.505
-1.5
-1.485
-1.46
-1.445
-1.44
-1.435
-1.43
-1.415
-1.405
-1.39
-1.375
-1.37
-1.36
-1.35
-1.345
-1.34
-1.345
-1.36
-1.36
-1.35
-1.345
-1.35
-1.345
-1.35
-1.355
-1.35
-1.365
-1.35
-1.345
-1.35
-1.35
-1.375
-1.38
-1.385
-1.395
-1.405
-1.44
-1.46
-1.485
-1.495
-1.505
-1.53
-1.54
-1.56
-1.565
-1.565
-1.575
-1.575
-1.575
-1.575
-1.58
-1.595
-1.61
-1.62
-1.615
-1.61
-1.615
-1.62
-1.61
-1.62
-1.62
-1.615
-1.615
-1.615
-1.62
-1.615
-1.615
-1.6
-1.61
-1.615
-1.615
-1.615
-1.62
-1.61
-1.61
-1.61
-1.62
-1.625
-1.615
-1.61
-1.6
-1.61
-1.63
-1.635
-1.645
-1.625
-1.62
-1.615
-1.62
-1.61
-1.61
-1.61
-1.605
-1.615
-1.625
-1.625
-1.615
-1.61
-1.595
-1.59
-1.585
-1.56
-1.55
-1.555
-1.555
-1.55
-1.545
-1.54
-1.54
-1.545
-1.55
-1.545
-1.53
-1.515
-1.505
-1.53
-1.54
-1.55
-1.56
-1.575
-1.58
-1.595
-1.62
-1.625
-1.65
-1.66
-1.68
-1.68
-1.68
-1.66
-1.65
-1.66
-1.665
-1.665
-1.66
-1.665
-1.68
-1.68
-1.68
-1.65
-1.645
-1.645
-1.65
-1.665
-1.68
-1.68
-1.625
-1.53
-1.345
-1.075
-0.75
-0.395
-0.065
0.1
0.0
-0.375
-0.95
-1.62
-2.095
-2.195
-2.05
-1.86
-1.725
-1.66
-1.65
-1.65
-1.65
-1.645
-1.635
-1.63
-1.62
-1.615
-1.62
-1.615
-1.61
-1.595
-1.595
-1.59
-1.59
-1.575
-1.585
-1.59
-1.59
-1.58
-1.58
-1.575
-1.575
-1.575
-1.59
-1.58
-1.58
-1.56
-1.555
-1.545
-1.55
-1.545
-1.53
-1.515
-1.495
-1.475
-1.47
-1.475
-1.465
-1.435
-1.43
-1.405
-1.4
-1.385
-1.36
-1.37
-1.355
-1.35
-1.345
-1.35
-1.355
-1.35
-1.345
-1.335
-1.325
-1.32
-1.33
-1.325
-1.315
-1.315
-1.315
-1.325
-1.33
-1.34
-1.335
-1.33
-1.34
-1.35
-1.36
-1.39
-1.4
-1.42
-1.445
-1.47
-1.495
-1.51
-1.525
-1.53
-1.525
-1.54
-1.56
-1.59
-1.59
-1.58
-1.58
-1.59
-1.61
-1.595
-1.605
-1.615
-1.62
-1.615
-1.6
-1.595
-1.61
-1.615
-1.62
-1.625
-1.64
-1.645
-1.645
-1.65
-1.65
-1.65
-1.645
-1.64
-1.63
-1.635
-1.645
-1.635
-1.63
-1.63
-1.63
-1.64
-1.62
-1.62
-1.62
-1.635
-1.63
-1.63
-1.63
-1.625
-1.63
-1.645
-1.645
-1.645
-1.635
-1.64
-1.65
-1.65
-1.65
-1.65
-1.65
-1.645
-1.63
-1.615
-1.595
-1.575
-1.56
-1.555
-1.545
-1.55
-1.55
-1.555
-1.56
-1.56
-1.56
-1.56
-1.545
-1.53
-1.515
-1.515
-1.525
-1.545
-1.56
-1.575
-1.59
-1.61
-1.635
-1.65
-1.66
-1.665
-1.665
-1.665
-1.68
-1.68
-1.68
-1.68
-1.68
-1.68
-1.695
-1.685
-1.68
-1.68
-1.675
-1.665
-1.65
-1.65
-1.65
-1.665
-1.675
-1.68
-1.65
-1.56
-1.405
-1.165
-0.86
-0.49
-0.11
0.11
0.05
-0.335
-0.935
-1.655
-2.18
-2.33
-2.165
-1.93
-1.765
-1.68
-1.655
-1.66
-1.66
-1.65
-1.635
-1.63
-1.63
-1.635
-1.635
-1.635
-1.625
-1.62
-1.645
-1.63
-1.63
-1.615
-1.615
-1.62
-1.61
-1.6
-1.59
-1.595
-1.6
-1.595
-1.59
-1.575
-1.56
-1.56
-1.545
-1.545
-1.54
-1.54
-1.53
-1.52
-1.51
-1.495
-1.49
-1.475
-1.47
-1.455
-1.445
-1.435
-1.42
-1.405
-1.405
-1.4
-1.395
-1.395
-1.375
-1.375
-1.365
-1.365
-1.37
-1.36
-1.36
-1.37
-1.36
-1.355
-1.355
-1.34
-1.345
-1.36
-1.36
-1.355
-1.345
-1.35
-1.35
-1.37
-1.385
-1.405
-1.425
-1.435
-1.445
-1.45
-1.47
-1.51
-1.53
-1.545
-1.55
-1.56
-1.565
-1.585
-1.585
-1.58
-1.58
-1.59
-1.595
-1.61
-1.615
-1.61
-1.62
-1.625
-1.63
-1.635
-1.63
-1.645
-1.65
-1.645
-1.635
-1.62
-1.625
-1.65
-1.645
-1.65
-1.65
-1.65
-1.65
-1.635
-1.645
-1.645
-1.65
-1.645
-1.635
-1.635
-1.635
-1.645
-1.645
-1.645
-1.635
-1.63
-1.645
-1.65
-1.66
-1.65
-1.645
-1.64
-1.635
-1.645
-1.65
-1.65
-1.65
-1.65
-1.65
-1.645
-1.635
-1.63
-1.62
-1.605
-1.585
-1.575
-1.56
-1.545
-1.545
-1.555
-1.535
-1.545
-1.545
-1.545
-1.56
-1.54
-1.53
-1.525
-1.52
-1.52
-1.53
-1.54
-1.55
-1.56
-1.59
-1.615
-1.64
-1.66
-1.665
-1.665
-1.68
-1.68
-1.685
-1.69
-1.695
-1.7
-1.71
-1.705
-1.7
-1.695
-1.695
-1.68
-1.68
-1.675
-1.665
-1.66
-1.655
-1.655
-1.66
-1.645
-1.59
-1.485
-1.33
-1.165
-0.93
-0.64
-0.34
-0.2
-0.33
-0.73
-1.36
-2.025
-2.39
-2.38
-2.16
-1.92
-1.765
-1.695
-1.665
-1.65
-1.64
-1.63
-1.625
-1.62
-1.615
-1.615
-1.615
-1.6
-1.595
-1.59
-1.6
-1.605
-1.595
-1.585
-1.575
-1.56
-1.575
-1.575
-1.57
-1.545
-1.53
-1.53
-1.53
-1.545
-1.54
-1.535
-1.53
-1.525
-1.495
-1.495
-1.475
-1.475
-1.465
-1.44
-1.445
-1.435
-1.43
-1.42
-1.405
-1.395
-1.375
-1.36
-1.37
-1.37
-1.37
-1.36
-1.35
-1.35
-1.375
-1.39
-1.385
-1.39
-1.375
-1.375
-1.365
-1.375
-1.375
-1.375
-1.38
-1.37
-1.36
-1.36
-1.345
-1.34
-1.34
-1.35
-1.36
-1.375
-1.395
-1.405
-1.425
-1.45
-1.465
-1.485
-1.495
-1.485
-1.51
-1.53
-1.56
-1.575
-1.58
-1.565
-1.56
-1.575
-1.59
-1.61
-1.605
-1.595
-1.6
-1.6
-1.61
-1.61
-1.61
-1.605
-1.6
-1.6
-1.605
-1.6
-1.6
-1.59
-1.585
-1.59
-1.59
-1.59
-1.59
-1.59
-1.61
-1.61
-1.61
-1.61
-1.615
-1.62
-1.62
-1.61
-1.6
-1.61
-1.62
-1.65
-1.635
-1.615
-1.6
-1.6
-1.62
-1.615
-1.615
-1.61
-1.595
-1.59
-1.57
-1.54
-1.53
-1.54
-1.56
-1.545
-1.545
-1.53
-1.53
-1.525
-1.52
-1.525
-1.525
-1.52
-1.505
-1.505
-1.505
-1.51
-1.52
-1.525
-1.54
-1.56
-1.595
-1.61
-1.625
-1.635
-1.645
-1.645
-1.645
-1.635
-1.645
-1.66
-1.66
-1.665
-1.665
-1.665
-1.68
-1.665
-1.66
-1.65
-1.65
-1.65
-1.65
-1.635
-1.635
-1.635
-1.63
-1.59
-1.51
-1.37
-1.195
-1.03
-0.835
-0.62
-0.435
-0.425
-0.65
-1.125
-1.75
-2.295
-2.51
-2.385
-2.105
-1.885
-1.745
-1.695
-1.67
-1.645
-1.62
-1.61
-1.595
-1.59
-1.585
-1.58
-1.58
-1.58
-1.58
-1.58
-1.58
-1.56
-1.56
-1.56
-1.56
-1.575
-1.56
-1.565
-1.555
-1.545
-1.54
-1.53
-1.52
-1.51
-1.51
-1.495
-1.485
-1.475
-1.485
-1.485
-1.49
-1.475
-1.46
-1.435
-1.43
-1.43
-1.415
-1.41
-1.4
-1.385
-1.385
-1.38
-1.365
-1.37
-1.375
-1.375
-1.375
-1.375
-1.375
-1.375
-1.385
-1.39
-1.375
-1.39
-1.39
-1.405
-1.395
-1.375
-1.385
-1.39
-1.395
-1.4
-1.4
-1.405
-1.39
-1.385
-1.38
-1.39
-1.41
-1.44
-1.455
-1.475
-1.49
-1.505
-1.515
-1.525
-1.53
-1.545
-1.555
-1.565
-1.575
-1.585
-1.58
-1.59
-1.6
-1.59
-1.585
-1.575
-1.585
-1.59
-1.605
-1.615
-1.61
-1.605
-1.595
-1.59
-1.59
-1.585
-1.59
-1.595
-1.585
-1.59
-1.58
-1.58
-1.585
-1.575
-1.58
-1.58
-1.59
-1.605
-1.6
-1.61
-1.59
-1.585
-1.58
-1.58
-1.595
-1.61
-1.615
-1.61
-1.62
-1.62
-1.61
-1.61
-1.61
-1.6
-1.59
-1.585
-1.585
-1.58
-1.585
-1.56
-1.555
-1.555
-1.545
-1.54
-1.525
-1.52
-1.51
-1.51
-1.515
-1.535
-1.51
-1.505
-1.495
-1.485
-1.47
-1.495
-1.505
-1.52
-1.53
-1.545
-1.56
-1.59
-1.61
-1.62
-1.63
-1.63
-1.63
-1.645
-1.65
-1.655
-1.665
-1.66
-1.65
-1.635
-1.63
-1.63
-1.62
-1.62
-1.615
-1.62
-1.635
-1.635
-1.635
-1.63
-1.63
-1.635
-1.595
-1.505
-1.35
-1.155
-0.905
-0.585
-0.26
0.005
0.06
-0.17
-0.64
-1.3
-1.955
-2.29
-2.225
-1.985
-1.77
-1.665
-1.63
-1.64
-1.645
-1.63
-1.625
-1.605
-1.595
-1.58
-1.575
-1.575
-1.59
-1.595
-1.59
-1.58
-1.56
-1.56
-1.575
-1.58
-1.58
-1.59
-1.555
-1.56
-1.56
-1.56
-1.555
-1.56
-1.55
-1.545
-1.55
-1.53
-1.51
-1.495
-1.495
-1.495
-1.475
-1.495
-1.47
-1.455
-1.435
-1.41
-1.41
-1.4
-1.4
-1.385
-1.37
-1.36
-1.345
-1.34
-1.345
-1.34
-1.345
-1.345
-1.345
-1.34
-1.345
-1.34
-1.345
-1.35
-1.345
-1.345
-1.345
-1.345
-1.345
-1.34
-1.345
-1.335
-1.33
-1.34
-1.345
-1.365
-1.385
-1.4
-1.405
-1.42
-1.445
-1.46
-1.465
-1.5
-1.51
-1.53
-1.54
-1.555
-1.54
-1.54
-1.555
-1.56
-1.58
-1.58
-1.59
-1.59
-1.595
-1.59
-1.58
-1.575
-1.58
-1.585
-1.59
-1.59
-1.59
-1.575
-1.58
-1.585
-1.59
-1.59
-1.585
-1.59
-1.58
-1.58
-1.575
-1.58
-1.59
-1.59
-1.59
-1.59
-1.59
-1.595
-1.595
-1.59
-1.595
-1.59
-1.6
-1.605
-1.62
-1.63
-1.61
-1.61
-1.605
-1.595
-1.595
-1.59
-1.595
-1.595
-1.6
-1.6
-1.58
-1.56
-1.53
-1.52
-1.515
-1.51
-1.51
-1.52
-1.52
-1.515
-1.52
-1.52
-1.53
-1.525
-1.51
-1.51
-1.515
-1.515
-1.51
-1.53
-1.53
-1.54
-1.56
-1.57
-1.62
-1.635
-1.645
-1.635
-1.645
-1.64
-1.645
-1.655
-1.635
-1.645
-1.65
-1.65
-1.665
-1.655
-1.65
-1.645
-1.65
-1.65
-1.635
-1.63
-1.62
-1.63
-1.65
-1.65
-1.615
-1.505
-1.285
-0.985
-0.62
-0.225
0.105
0.17
-0.105
-0.65
-1.405
-2.02
-2.23
-2.105
-1.88
-1.71
-1.66
-1.65
-1.645
-1.63
-1.625
-1.615
-1.615
-1.595
-1.595
-1.61
-1.6
-1.59
-1.59
-1.59
-1.6
-1.59
-1.575
-1.565
-1.585
-1.59
-1.58
-1.575
-1.575
-1.575
-1.58
-1.56
-1.555
-1.54
-1.54
-1.53
-1.525
-1.515
-1.52
-1.51
-1.51
-1.495
-1.475
-1.475
-1.46
-1.455
-1.44
-1.425
-1.415
-1.405
-1.395
-1.385
-1.375
-1.36
-1.345
-1.335
-1.345
-1.35
-1.355
-1.35
-1.355
-1.34
-1.32
-1.32
-1.32
-1.325
-1.325
-1.32
-1.345
-1.34
-1.33
-1.315
-1.31
-1.315
-1.33
-1.345
-1.36
-1.375
-1.39
-1.405
-1.405
-1.435
-1.46
-1.475
-1.5
-1.525
-1.53
-1.545
-1.555
-1.555
-1.55
-1.55
-1.565
-1.575
-1.575
-1.575
-1.59
-1.58
-1.585
-1.59
-1.59
-1.59
-1.59
-1.59
-1.615
-1.61
-1.62
-1.62
-1.625
-1.635
-1.63
-1.63
-1.62
-1.61
-1.6
-1.595
-1.6
-1.615
-1.615
-1.615
-1.605
-1.595
-1.61
-1.61
-1.6
-1.595
-1.605
-1.615
-1.62
-1.63
-1.635
-1.63
-1.625
-1.615
-1.62
-1.625
-1.62
-1.615
-1.61
-1.61
-1.6
-1.59
-1.57
-1.555
-1.53
-1.53
-1.54
-1.525
-1.53
-1.53
-1.53
-1.545
-1.54
-1.54
-1.53
-1.525
-1.505
-1.505
-1.52
-1.52
-1.515
-1.51
-1.53
-1.56
-1.59
-1.615
-1.63
-1.635
-1.65
-1.65
-1.65
-1.65
-1.65
-1.645
-1.645
-1.65
-1.665
-1.68
-1.685
-1.665
-1.655
-1.635
-1.63
-1.625
-1.63
-1.645
-1.65
-1.65
-1.65
-1.615
-1.52
-1.37
-1.145
-0.865
-0.585
-0.315
-0.15
-0.22
-0.53
-1.045
-1.67
-2.18
-2.345
-2.215
-1.995
-1.815
-1.715
-1.665
-1.645
-1.63
-1.615
-1.595
-1.6
-1.61
-1.61
-1.61
-1.61
-1.6
-1.6
-1.595
-1.59
-1.58
-1.585
-1.58
-1.585
-1.575
-1.56
-1.545
-1.54
-1.54
-1.545
-1.545
-1.545
-1.54
-1.53
-1.505
-1.51
-1.5
-1.5
-1.5
-1.475
-1.485
-1.47
-1.46
-1.455
-1.45
-1.435
-1.42
-1.405
-1.39
-1.375
-1.375
-1.375
-1.385
-1.38
-1.37
-1.365
-1.35
-1.345
-1.345
-1.35
-1.35
-1.35
-1.355
-1.345
-1.34
-1.33
-1.34
-1.345
-1.345
-1.345
-1.34
-1.345
-1.34
-1.345
-1.34
-1.345
-1.345
-1.375
-1.39
-1.415
-1.43
-1.435
-1.475
-1.5
-1.525
-1.53
-1.545
-1.545
-1.545
-1.555
-1.56
-1.575
-1.575
-1.59
-1.59
-1.6
-1.595
-1.6
-1.595
-1.59
-1.605
-1.605
-1.61
-1.61
-1.61
-1.6
-1.61
-1.62
-1.63
-1.635
-1.625
-1.61
-1.625
-1.62
-1.615
-1.61
-1.61
-1.615
-1.615
-1.615
-1.625
-1.62
-1.61
-1.615
-1.6
-1.61
-1.61
-1.615
-1.645
-1.635
-1.645
-1.63
-1.625
-1.625
-1.62
-1.62
-1.61
-1.6
-1.58
-1.565
-1.56
-1.55
-1.545
-1.54
-1.54
-1.54
-1.53
-1.53
-1.53
-1.53
-1.52
-1.51
-1.495
-1.505
-1.51
-1.53
-1.545
-1.575
-1.6
-1.62
-1.645
-1.65
-1.66
-1.665
-1.665
-1.68
-1.68
-1.68
-1.68
-1.675
-1.68
-1.665
-1.675
-1.68
-1.68
-1.685
-1.68
-1.67
-1.66
-1.65
-1.65
-1.655
-1.66
-1.645
-1.595
-1.505
-1.375
-1.22
-1.06
-0.875
-0.675
-0.5
-0.465
-0.69
-1.15
-1.8
-2.335
-2.52
-2.35
-2.08
-1.86
-1.74
-1.68
-1.66
-1.645
-1.635
-1.63
-1.615
-1.6
-1.61
-1.61
-1.62
-1.63
-1.61
-1.605
-1.59
-1.59
-1.6
-1.59
-1.58
-1.575
-1.59
-1.59
-1.58
-1.575
-1.56
-1.56
-1.555
-1.555
-1.56
-1.555
-1.545
-1.53
-1.51
-1.49
-1.49
-1.495
-1.505
-1.495
-1.475
-1.46
-1.45
-1.44
-1.43
-1.42
-1.415
-1.405
-1.395
-1.385
-1.39
-1.39
-1.395
-1.385
-1.375
-1.37
-1.39
-1.41
-1.415
-1.41
-1.4
-1.41
-1.405
-1.405
-1.405
-1.405
-1.405
-1.405
-1.405
-1.395
-1.395
-1.405
-1.41
-1.42
-1.43
-1.435
-1.45
-1.46
-1.48
-1.505
-1.53
-1.545
-1.56
-1.58
-1.59
-1.595
-1.61
-1.61
-1.61
-1.595
-1.595
-1.615
-1.615
-1.615
-1.615
-1.615
-1.62
-1.615
-1.6
-1.61
-1.61
-1.615
-1.63
-1.615
-1.61
-1.61
-1.62
-1.63
-1.635
-1.63
-1.64
-1.63
-1.635
-1.625
-1.625
-1.62
-1.62
-1.625
-1.62
-1.615
-1.62
-1.63
-1.63
-1.64
-1.635
-1.63
-1.63
-1.615
-1.62
-1.62
-1.62
-1.625
-1.615
-1.605
-1.59
-1.58
-1.575
-1.565
-1.56
-1.56
-1.56
-1.56
-1.545
-1.54
-1.555
-1.54
-1.545
-1.53
-1.52
-1.505
-1.53
-1.545
-1.555
-1.565
-1.575
-1.575
-1.585
-1.61
-1.635
-1.66
-1.665
-1.68
-1.69
-1.69
-1.68
-1.665
-1.66
-1.655
-1.67
-1.68
-1.685
-1.68
-1.675
-1.675
-1.665
-1.665
-1.66
-1.655
-1.65
-1.645
-1.645
-1.62
-1.54
-1.405
-1.205
-0.955
-0.645
-0.345
-0.125
-0.12
-0.415
-0.905
-1.565
-2.145
-2.4
-2.285
-2.045
-1.83
-1.705
-1.66
-1.655
-1.655
-1.65
-1.645
-1.625
-1.62
-1.615
-1.615
-1.61
-1.6
-1.605
-1.605
-1.6
-1.61
-1.6
-1.595
-1.59
-1.59
-1.6
-1.59
-1.595
-1.585
-1.585
-1.575
-1.565
-1.57
-1.56
-1.55
-1.53
-1.525
-1.505
-1.505
-1.505
-1.485
-1.495
-1.475
-1.46
-1.445
-1.425
-1.42
-1.41
-1.395
-1.385
-1.375
-1.385
-1.39
-1.395
-1.375
-1.365
-1.35
-1.36
-1.375
-1.375
-1.375
-1.365
-1.355
-1.35
-1.35
-1.35
-1.355
-1.36
-1.36
-1.36
-1.355
-1.345
-1.345
-1.35
-1.36
-1.385
-1.4
-1.42
-1.435
-1.46
-1.485
-1.505
-1.54
-1.54
-1.545
-1.55
-1.56
-1.59
-1.59
-1.59
-1.59
-1.59
-1.59
-1.595
-1.595
-1.605
-1.605
-1.595
-1.59
-1.61
-1.63
-1.645
-1.645
-1.64
-1.63
-1.635
-1.625
-1.61
-1.615
-1.62
-1.625
-1.635
-1.615
-1.62
-1.615
-1.62
-1.62
-1.62
-1.615
-1.615
-1.615
-1.615
-1.62
-1.625
-1.645
-1.63
-1.63
-1.63
-1.63
-1.65
-1.645
-1.645
-1.645
-1.65
-1.65
-1.63
-1.615
-1.595
-1.58
-1.565
-1.555
-1.565
-1.56
-1.555
-1.54
-1.53
-1.545
-1.55
-1.56
-1.555
-1.545
-1.54
-1.53
-1.54
-1.545
-1.56
-1.575
-1.57
-1.58
-1.6
-1.62
-1.645
-1.655
-1.665
-1.665
-1.665
-1.665
-1.68
-1.685
-1.68
-1.68
-1.68
-1.66
-1.66
-1.65
-1.655
-1.675
-1.675
-1.68
-1.68
-1.675
-1.665
-1.665
-1.685
-1.69
-1.66
-1.56
-1.385
-1.135
-0.815
-0.445
-0.075
0.135
0.065
-0.31
-0.92
-1.65
-2.15
-2.27
-2.105
-1.885
-1.735
-1.68
-1.65
-1.65
-1.655
-1.66
-1.65
-1.63
-1.63
-1.625
-1.625
-1.63
-1.635
-1.615
-1.61
-1.595
-1.61
-1.62
-1.615
-1.6
-1.595
-1.59
-1.59
-1.575
-1.575
-1.58
-1.58
-1.58
-1.565
-1.56
-1.555
-1.545
-1.54
-1.53
-1.525
-1.525
-1.52
-1.505
-1.495
-1.48
-1.465
-1.44
-1.43
-1.41
-1.395
-1.37
-1.36
-1.37
-1.36
-1.365
-1.37
-1.36
-1.35
-1.345
-1.32
-1.335
-1.33
-1.335
-1.325
-1.305
-1.31
-1.305
-1.315
-1.325
-1.325
-1.335
-1.335
-1.335
-1.33
-1.335
-1.36
-1.375
-1.4
-1.42
-1.445
-1.47
-1.5
-1.525
-1.54
-1.54
-1.545
-1.545
-1.55
-1.56
-1.56
-1.57
-1.575
-1.58
-1.585
-1.59
-1.6
-1.595
-1.605
-1.6
-1.6
-1.615
-1.625
-1.63
-1.63
-1.63
-1.63
-1.63
-1.62
-1.62
-1.62
-1.63
-1.65
-1.63
-1.63
-1.62
-1.62
-1.625
-1.625
-1.625
-1.635
-1.635
-1.635
-1.645
-1.645
-1.645
-1.645
-1.63
-1.635
-1.635
-1.62
-1.62
-1.63
-1.635
-1.63
-1.62
-1.61
-1.605
-1.595
-1.58
-1.56
-1.555
-1.545
-1.545
-1.545
-1.545
-1.555
-1.555
-1.555
-1.555
-1.53
-1.53
-1.53
-1.53
-1.545
-1.53
-1.54
-1.545
-1.575
-1.595
-1.62
-1.64
-1.645
-1.65
-1.665
-1.67
-1.67
-1.665
-1.67
-1.665
-1.68
-1.68
-1.68
-1.67
-1.665
-1.68
-1.68
-1.665
-1.67
-1.665
-1.665
-1.665
-1.655
-1.66
-1.67
-1.65
-1.57
-1.39
-1.12
-0.775
-0.4
-0.07
0.075
-0.105
-0.57
-1.25
-1.925
-2.265
-2.25
-2.045
-1.845
-1.725
-1.67
-1.665
-1.66
-1.66
-1.66
-1.645
-1.635
-1.63
-1.645
-1.645
-1.635
-1.62
-1.615
-1.61
-1.6
-1.6
-1.61
-1.61
-1.615
-1.605
-1.595
-1.595
-1.595
-1.595
-1.595
-1.585
-1.58
-1.56
-1.56
-1.55
-1.55
-1.545
-1.53
-1.53
-1.53
-1.51
-1.485
-1.475
-1.46
-1.46
-1.44
-1.42
-1.43
-1.41
-1.405
-1.385
-1.375
-1.365
-1.36
-1.355
-1.35
-1.35
-1.355
-1.355
-1.36
-1.35
-1.345
-1.34
-1.34
-1.33
-1.325
-1.32
-1.33
-1.32
-1.325
-1.335
-1.345
-1.34
-1.345
-1.35
-1.375
-1.405
-1.425
-1.445
-1.47
-1.495
-1.52
-1.53
-1.55
-1.54
-1.555
-1.56
-1.58
-1.61
-1.595
-1.605
-1.61
-1.615
-1.62
-1.61
-1.61
-1.6
-1.61
-1.615
-1.62
-1.63
-1.63
-1.63
-1.64
-1.645
-1.65
-1.64
-1.635
-1.635
-1.645
-1.645
-1.645
-1.635
-1.625
-1.63
-1.645
-1.645
-1.645
-1.63
-1.635
-1.645
-1.66
-1.66
-1.665
-1.655
-1.65
-1.645
-1.65
-1.645
-1.65
-1.66
-1.645
-1.63
-1.62
-1.61
-1.61
-1.585
-1.585
-1.58
-1.575
-1.565
-1.555
-1.555
-1.555
-1.56
-1.58
-1.56
-1.545
-1.525
-1.53
-1.54
-1.555
-1.555
-1.55
-1.56
-1.56
-1.575
-1.595
-1.615
-1.635
-1.65
-1.68
-1.68
-1.69
-1.695
-1.68
-1.68
-1.68
-1.685
-1.68
-1.68
-1.685
-1.705
-1.69
-1.69
-1.69
-1.695
-1.705
-1.68
-1.67
-1.655
-1.65
-1.625
-1.56
-1.445
-1.29
-1.115
-0.9
-0.645
-0.405
-0.33
-0.505
-0.92
-1.53
-2.125
-2.42
-2.38
-2.155
-1.92
-1.77
-1.7
-1.665
-1.66
-1.66
-1.665
-1.635
-1.63
-1.635
-1.645
-1.635
-1.615
-1.6
-1.6
-1.615
-1.615
-1.615
-1.615
-1.605
-1.59
-1.61
-1.595
-1.59
-1.575
-1.575
-1.575
-1.56
-1.555
-1.54
-1.54
-1.53
-1.53
-1.525
-1.52
-1.5
-1.48
-1.47
-1.45
-1.45
-1.45
-1.45
-1.435
-1.43
-1.415
-1.405
-1.395
-1.39
-1.375
-1.365
-1.36
-1.36
-1.36
-1.375
-1.37
-1.365
-1.37
-1.36
-1.355
-1.36
-1.36
-1.375
-1.365
-1.35
-1.35
-1.345
-1.35
-1.35
-1.335
-1.34
-1.34
-1.345
-1.35
-1.375
-1.41
-1.44
-1.47
-1.485
-1.505
-1.535
-1.555
-1.56
-1.565
-1.58
-1.585
-1.59
-1.59
-1.59
-1.595
-1.6
-1.595
-1.59
-1.6
-1.615
-1.615
-1.61
-1.595
-1.605
-1.615
-1.62
-1.62
-1.615
-1.62
-1.625
-1.62
-1.635
-1.615
-1.615
-1.615
-1.62
-1.635
-1.62
-1.62
-1.62
-1.615
-1.615
-1.61
-1.615
-1.625
-1.645
-1.65
-1.65
-1.65
-1.645
-1.63
-1.635
-1.63
-1.625
-1.605
-1.585
-1.575
-1.575
-1.575
-1.585
-1.575
-1.56
-1.545
-1.545
-1.525
-1.53
-1.54
-1.555
-1.56
-1.555
-1.53
-1.515
-1.505
-1.515
-1.54
-1.55
-1.545
-1.56
-1.595
-1.615
-1.645
-1.655
-1.66
-1.665
-1.655
-1.66
-1.665
-1.66
-1.67
-1.67
-1.68
-1.68
-1.68
-1.68
-1.68
-1.68
-1.665
-1.65
-1.65
-1.65
-1.65
-1.65
-1.66
-1.64
-1.59
-1.485
-1.33
-1.165
-0.96
-0.71
-0.465
-0.285
-0.33
-0.63
-1.17
-1.85
-2.315
-2.41
-2.225
-1.99
-1.83
-1.735
-1.68
-1.665
-1.65
-1.65
-1.625
-1.62
-1.615
-1.62
-1.615
-1.62
-1.595
-1.59
-1.58
-1.59
-1.59
-1.6
-1.59
-1.575
-1.56
-1.575
-1.575
-1.575
-1.58
-1.565
-1.56
-1.555
-1.545
-1.54
-1.54
-1.53
-1.52
-1.505
-1.49
-1.47
-1.46
-1.46
-1.45
-1.435
-1.445
-1.435
-1.41
-1.405
-1.395
-1.39
-1.385
-1.365
-1.375
-1.37
-1.37
-1.36
-1.345
-1.355
-1.35
-1.37
-1.37
-1.365
-1.375
-1.37
-1.365
-1.36
-1.355
-1.35
-1.355
-1.37
-1.37
-1.375
-1.37
-1.375
-1.385
-1.395
-1.41
-1.43
-1.44
-1.455
-1.48
-1.515
-1.54
-1.555
-1.565
-1.565
-1.56
-1.585
-1.59
-1.59
-1.595
-1.61
-1.615
-1.625
-1.615
-1.61
-1.605
-1.595
-1.615
-1.6
-1.61
-1.61
-1.615
-1.62
-1.625
-1.615
-1.61
-1.61
-1.615
-1.625
-1.62
-1.62
-1.615
-1.615
-1.615
-1.62
-1.615
-1.62
-1.63
-1.63
-1.625
-1.62
-1.625
-1.62
-1.625
-1.62
-1.62
-1.62
-1.615
-1.63
-1.625
-1.62
-1.63
-1.63
-1.63
-1.63
-1.6
-1.595
-1.595
-1.585
-1.585
-1.56
-1.54
-1.53
-1.53
-1.545
-1.545
-1.545
-1.535
-1.53
-1.53
-1.52
-1.51
-1.51
-1.525
-1.54
-1.54
-1.54
-1.54
-1.565
-1.59
-1.62
-1.63
-1.645
-1.65
-1.66
-1.665
-1.67
-1.665
-1.665
-1.665
-1.665
-1.655
-1.66
-1.665
-1.665
-1.665
-1.665
-1.66
-1.65
-1.63
-1.625
-1.645
-1.65
-1.665
-1.65
-1.575
-1.405
-1.18
-0.86
-0.495
-0.13
0.125
0.08
-0.26
-0.83
-1.54
-2.115
-2.27
-2.12
-1.89
-1.725
-1.65
-1.635
-1.64
-1.645
-1.645
-1.645
-1.64
-1.635
-1.62
-1.595
-1.58
-1.575
-1.59
-1.605
-1.625
-1.625
-1.615
-1.61
-1.6
-1.595
-1.59
-1.58
-1.59
-1.58
-1.575
-1.575
-1.57
-1.585
-1.56
-1.56
-1.54
-1.54
-1.53
-1.515
-1.5
-1.49
-1.475
-1.46
-1.465
-1.455
-1.44
-1.43
-1.415
-1.4
-1.39
-1.375
-1.365
-1.36
-1.355
-1.36
-1.355
-1.36
-1.35
-1.335
-1.315
-1.31
-1.32
-1.325
-1.325
-1.315
-1.315
-1.31
-1.295
-1.29
-1.27
-1.295
-1.31
-1.315
-1.32
-1.32
-1.35
-1.375
-1.405
-1.44
-1.455
-1.475
-1.495
-1.505
-1.51
-1.53
-1.53
-1.54
-1.555
-1.56
-1.56
-1.565
-1.575
-1.59
-1.59
-1.595
-1.59
-1.59
-1.59
-1.6
-1.595
-1.61
-1.62
-1.62
-1.62
-1.62
-1.615
-1.62
-1.62
-1.615
-1.61
-1.62
-1.625
-1.62
-1.615
-1.6
-1.595
-1.625
-1.615
-1.62
-1.615
-1.61
-1.62
-1.615
-1.615
-1.615
-1.615
-1.625
-1.635
-1.635
-1.625
-1.62
-1.62
-1.62
-1.615
-1.62
-1.615
-1.615
-1.62
-1.61
-1.59
-1.58
-1.56
-1.55
-1.53
-1.53
-1.525
-1.53
-1.52
-1.52
-1.53
-1.53
-1.53
-1.54
-1.525
-1.51
-1.51
-1.53
-1.53
-1.545
-1.53
-1.545
-1.56
-1.595
-1.63
-1.63
-1.63
-1.635
-1.635
-1.65
-1.65
-1.65
-1.665
-1.66
-1.66
-1.65
-1.65
-1.65
-1.645
-1.645
-1.64
-1.645
-1.65
-1.65
-1.65
-1.645
-1.65
-1.665
-1.645
-1.53
-1.35
-1.07
-0.695
-0.29
0.07
0.205
0.005
-0.45
-1.14
-1.86
-2.225
-2.195
-1.975
-1.785
-1.67
-1.645
-1.645
-1.63
-1.63
-1.62
-1.615
-1.625
-1.615
-1.62
-1.615
-1.615
-1.615
-1.61
-1.615
-1.6
-1.59
-1.585
-1.575
-1.575
-1.58
-1.58
-1.58
-1.585
-1.59
-1.575
-1.56
-1.565
-1.56
-1.56
-1.545
-1.535
-1.53
-1.525
-1.51
-1.5
-1.495
-1.485
-1.46
-1.45
-1.44
-1.43
-1.42
-1.405
-1.385
-1.39
-1.37
-1.37
-1.365
-1.36
-1.355
-1.345
-1.34
-1.34
-1.34
-1.345
-1.34
-1.33
-1.315
-1.305
-1.3
-1.315
-1.32
-1.315
-1.3
-1.305
-1.305
-1.31
-1.31
-1.33
-1.345
-1.36
-1.375
-1.4
-1.425
-1.435
-1.455
-1.48
-1.5
-1.525
-1.53
-1.545
-1.545
-1.54
-1.545
-1.56
-1.595
-1.59
-1.595
-1.595
-1.595
-1.615
-1.595
-1.6
-1.61
-1.62
-1.625
-1.615
-1.61
-1.61
-1.615
-1.625
-1.62
-1.625
-1.62
-1.625
-1.615
-1.625
-1.625
-1.63
-1.645
-1.635
-1.63
-1.625
-1.615
-1.615
-1.62
-1.615
-1.63
-1.625
-1.645
-1.645
-1.63
-1.615
-1.62
-1.63
-1.645
-1.635
-1.625
-1.62
-1.615
-1.62
-1.615
-1.63
-1.615
-1.59
-1.565
-1.555
-1.56
-1.55
-1.55
-1.54
-1.53
-1.53
-1.52
-1.52
-1.52
-1.525
-1.53
-1.53
-1.53
-1.53
-1.525
-1.53
-1.555
-1.575
-1.59
-1.61
-1.615
-1.63
-1.64
-1.635
-1.64
-1.645
-1.65
-1.665
-1.665
-1.67
-1.66
-1.655
-1.655
-1.65
-1.65
-1.65
-1.66
-1.67
-1.665
-1.655
-1.65
-1.645
-1.665
-1.665
-1.63
-1.545
-1.405
-1.19
-0.92
-0.58
-0.245
-0.085
-0.25
-0.725
-1.415
-2.055
-2.315
-2.215
-1.99
-1.8
-1.7
-1.665
-1.645
-1.63
-1.63
-1.62
-1.625
-1.615
-1.61
-1.615
-1.605
-1.595
-1.59
-1.595
-1.595
-1.595
-1.585
-1.58
-1.585
-1.58
-1.56
-1.56
-1.555
-1.545
-1.545
-1.525
-1.53
-1.54
-1.53
-1.53
-1.53
-1.52
-1.51
-1.49
-1.485
-1.48
-1.47
-1.46
-1.45
-1.435
-1.42
-1.405
-1.38
-1.375
-1.375
-1.36
-1.34
-1.345
-1.35
-1.345
-1.34
-1.33
-1.34
-1.335
-1.34
-1.34
-1.345
-1.345
-1.335
-1.33
-1.315
-1.315
-1.31
-1.305
-1.295
-1.29
-1.275
-1.29
-1.3
-1.31
-1.32
-1.325
-1.365
-1.4
-1.435
-1.45
-1.455
-1.465
-1.48
-1.5
-1.51
-1.53
-1.545
-1.545
-1.55
-1.555
-1.555
-1.56
-1.56
-1.565
-1.58
-1.59
-1.59
-1.59
-1.595
-1.595
-1.59
-1.59
-1.58
-1.595
-1.615
-1.62
-1.615
-1.61
-1.59
-1.595
-1.59
-1.6
-1.61
-1.59
-1.6
-1.6
-1.61
-1.615
-1.595
-1.595
-1.595
-1.62
-1.62
-1.6
-1.595
-1.605
-1.615
-1.615
-1.61
-1.6
-1.595
-1.6
-1.61
-1.61
-1.595
-1.59
-1.58
-1.575
-1.57
-1.56
-1.56
-1.545
-1.53
-1.525
-1.53
-1.515
-1.505
-1.5
-1.505
-1.52
-1.52
-1.51
-1.495
-1.495
-1.5
-1.525
-1.54
-1.55
-1.56
-1.59
-1.595
-1.61
-1.6
-1.62
-1.65
-1.66
-1.67
-1.67
-1.66
-1.65
-1.645
-1.635
-1.645
-1.645
-1.65
-1.65
-1.65
-1.65
-1.645
-1.635
-1.63
-1.625
-1.625
-1.615
-1.56
-1.44
-1.285
-1.11
-0.91
-0.685
-0.46
-0.355
-0.455
-0.825
-1.41
-2.025
-2.4
-2.38
-2.145
-1.905
-1.745
-1.68
-1.635
-1.63
-1.625
-1.61
-1.61
-1.59
-1.59
-1.595
-1.595
-1.59
-1.58
-1.585
-1.58
-1.585
-1.575
-1.565
-1.545
-1.54
-1.54
-1.545
-1.54
-1.54
-1.53
-1.53
-1.53
-1.52
-1.525
-1.525
-1.525
-1.52
-1.51
-1.51
-1.495
-1.48
-1.46
-1.445
-1.435
-1.44
-1.43
-1.425
-1.4
-1.37
-1.37
-1.36
-1.36
-1.345
-1.325
-1.345
-1.35
-1.365
-1.375
-1.36
-1.375
-1.375
-1.385
-1.375
-1.375
-1.37
-1.355
-1.345
-1.355
-1.36
-1.35
-1.345
-1.34
-1.33
-1.35
-1.37
-1.375
-1.395
-1.4
-1.415
-1.425
-1.445
-1.47
-1.495
-1.51
-1.53
-1.545
-1.54
-1.54
-1.555
-1.57
-1.575
-1.565
-1.56
-1.555
-1.56
-1.59
-1.58
-1.58
-1.58
-1.59
-1.615
-1.61
-1.61
-1.615
-1.615
-1.615
-1.61
-1.595
-1.595
-1.595
-1.6
-1.595
-1.595
-1.595
-1.59
-1.58
-1.585
-1.595
-1.595
-1.595
-1.595
-1.595
-1.595
-1.61
-1.62
-1.62
-1.62
-1.61
-1.6
-1.61
-1.62
-1.62
-1.615
-1.61
-1.6
-1.595
-1.61
-1.63
-1.615
-1.605
-1.58
-1.565
-1.56
-1.53
-1.53
-1.53
-1.525
-1.53
-1.53
-1.53
-1.53
-1.53
-1.53
-1.53
-1.52
-1.515
-1.51
-1.525
-1.53
-1.545
-1.54
-1.54
-1.545
-1.56
-1.59
-1.615
-1.63
-1.63
-1.63
-1.65
-1.65
-1.65
-1.65
-1.65
-1.655
-1.65
-1.655
-1.65
-1.65
-1.66
-1.66
-1.66
-1.645
-1.63
-1.64
-1.615
-1.62
-1.635
-1.61
-1.51
-1.32
-1.05
-0.71
-0.34
-0.005
0.105
-0.09
-0.565
-1.25
-1.92
-2.26
-2.22
-2.005
-1.805
-1.68
-1.645
-1.62
-1.62
-1.62
-1.61
-1.61
-1.615
-1.615
-1.61
-1.595
-1.59
-1.59
-1.59
-1.59
-1.59
-1.595
-1.59
-1.575
-1.575
-1.58
-1.575
-1.585
-1.56
-1.55
-1.545
-1.55
-1.575
-1.56
-1.545
-1.53
-1.52
-1.53
-1.51
-1.5
-1.475
-1.465
-1.46
-1.465
-1.45
-1.435
-1.42
-1.41
-1.395
-1.39
-1.385
-1.36
-1.345
-1.335
-1.34
-1.34
-1.345
-1.345
-1.34
-1.345
-1.345
-1.33
-1.335
-1.325
-1.325
-1.325
-1.315
-1.315
-1.315
-1.305
-1.315
-1.325
-1.33
-1.33
-1.34
-1.35
-1.375
-1.375
-1.39
-1.405
-1.43
-1.44
-1.46
-1.485
-1.51
-1.53
-1.54
-1.54
-1.54
-1.54
-1.54
-1.56
-1.575
-1.59
-1.59
-1.6
-1.595
-1.595
-1.595
-1.595
-1.605
-1.615
-1.595
-1.59
-1.585
-1.59
-1.595
-1.595
-1.6
-1.6
-1.605
-1.59
-1.58
-1.58
-1.59
-1.61
-1.63
-1.62
-1.615
-1.61
-1.6
-1.615
-1.615
-1.615
-1.615
-1.61
-1.61
-1.6
-1.6
-1.595
-1.61
-1.61
-1.615
-1.61
-1.595
-1.6
-1.6
-1.615
-1.62
-1.62
-1.62
-1.615
-1.6
-1.59
-1.575
-1.56
-1.53
-1.515
-1.51
-1.525
-1.53
-1.53
-1.53
-1.52
-1.51
-1.505
-1.505
-1.5
-1.475
-1.51
-1.53
-1.545
-1.56
-1.59
-1.59
-1.61
-1.62
-1.63
-1.65
-1.655
-1.65
-1.645
-1.63
-1.635
-1.64
-1.65
-1.655
-1.655
-1.65
-1.65
-1.65
-1.645
-1.65
-1.65
-1.645
-1.63
-1.625
-1.645
-1.66
-1.66
-1.615
-1.485
-1.275
-0.98
-0.62
-0.235
0.09
0.16
-0.07
-0.57
-1.27
-1.95
-2.26
-2.19
-1.955
-1.77
-1.66
-1.635
-1.63
-1.64
-1.63
-1.625
-1.625
-1.615
-1.61
-1.61
-1.595
-1.6
-1.605
-1.61
-1.6
-1.61
-1.605
-1.605
-1.595
-1.59
-1.58
-1.575
-1.575
-1.575
-1.56
-1.555
-1.56
-1.56
-1.56
-1.55
-1.545
-1.53
-1.525
-1.505
-1.505
-1.495
-1.49
-1.47
-1.445
-1.435
-1.435
-1.42
-1.435
-1.42
-1.405
-1.385
-1.375
-1.375
-1.365
-1.365
-1.35
-1.335
-1.345
-1.345
-1.35
-1.345
-1.34
-1.335
-1.335
-1.33
-1.335
-1.335
-1.325
-1.315
-1.315
-1.31
-1.31
-1.32
-1.335
-1.345
-1.36
-1.375
-1.395
-1.41
-1.43
-1.45
-1.475
-1.5
-1.52
-1.53
-1.53
-1.54
-1.54
-1.575
-1.585
-1.59
-1.59
-1.605
-1.63
-1.625
-1.625
-1.615
-1.61
-1.615
-1.6
-1.61
-1.615
-1.62
-1.63
-1.63
-1.63
-1.625
-1.625
-1.62
-1.615
-1.615
-1.61
-1.615
-1.615
-1.62
-1.63
-1.645
-1.645
-1.635
-1.63
-1.645
-1.62
-1.62
-1.615
-1.62
-1.62
-1.62
-1.62
-1.63
-1.645
-1.645
-1.635
-1.63
-1.62
-1.62
-1.635
-1.615
-1.615
-1.615
-1.615
-1.615
-1.59
-1.59
-1.575
-1.565
-1.56
-1.565
-1.565
-1.56
-1.545
-1.53
-1.525
-1.51
-1.505
-1.505
-1.51
-1.51
-1.525
-1.53
-1.53
-1.54
-1.545
-1.555
-1.575
-1.595
-1.63
-1.65
-1.665
-1.665
-1.665
-1.67
-1.675
-1.68
-1.68
-1.68
-1.67
-1.66
-1.665
-1.65
-1.65
-1.65
-1.65
-1.67
-1.665
-1.665
-1.66
-1.655
-1.65
-1.625
-1.56
-1.435
-1.255
-1.035
-0.765
-0.45
-0.24
-0.315
-0.675
-1.255
-1.92
-2.33
-2.37
-2.165
-1.92
-1.755
-1.67
-1.645
-1.63
-1.625
-1.61
-1.6
-1.61
-1.615
-1.615
-1.615
-1.62
-1.615
-1.595
-1.585
-1.59
-1.575
-1.575
-1.565
-1.56
-1.575
-1.56
-1.565
-1.565
-1.56
-1.545
-1.53
-1.53
-1.53
-1.53
-1.53
-1.51
-1.505
-1.5
-1.495
-1.495
-1.47
-1.45
-1.445
-1.44
-1.43
-1.415
-1.395
-1.395
-1.385
-1.38
-1.36
-1.35
-1.35
-1.345
-1.35
-1.355
-1.36
-1.36
-1.365
-1.375
-1.36
-1.35
-1.345
-1.34
-1.35
-1.34
-1.325
-1.335
-1.33
-1.335
-1.325
-1.315
-1.325
-1.34
-1.345
-1.355
-1.365
-1.39
-1.41
-1.435
-1.46
-1.495
-1.505
-1.51
-1.53
-1.53
-1.53
-1.54
-1.545
-1.56
-1.565
-1.56
-1.575
-1.575
-1.59
-1.595
-1.61
-1.61
-1.61
-1.61
-1.61
-1.6
-1.595
-1.595
-1.59
-1.595
-1.6
-1.6
-1.615
-1.595
-1.595
-1.595
-1.6
-1.615
-1.6
-1.6
-1.61
-1.61
-1.61
-1.6
-1.61
-1.595
-1.6
-1.62
-1.62
-1.625
-1.615
-1.6
-1.6
-1.61
-1.615
-1.615
-1.615
-1.63
-1.625
-1.615
-1.61
-1.59
-1.585
-1.565
-1.56
-1.53
-1.535
-1.53
-1.52
-1.52
-1.53
-1.54
-1.53
-1.53
-1.49
-1.47
-1.47
-1.49
-1.515
-1.545
-1.545
-1.56
-1.58
-1.595
-1.62
-1.63
-1.645
-1.63
-1.65
-1.66
-1.66
-1.665
-1.655
-1.66
-1.655
-1.66
-1.66
-1.66
-1.655
-1.65
-1.645
-1.645
-1.65
-1.655
-1.65
-1.65
-1.65
-1.645
-1.6
-1.505
-1.345
-1.18
-0.985
-0.755
-0.5
-0.325
-0.375
-0.7
-1.275
-1.95
-2.385
-2.435
-2.215
-1.97
-1.79
-1.7
-1.665
-1.64
-1.635
-1.63
-1.625
-1.63
-1.62
-1.605
-1.59
-1.585
-1.585
-1.58
-1.585
-1.59
-1.59
-1.59
-1.58
-1.56
-1.56
-1.545
-1.56
-1.565
-1.56
-1.555
-1.545
-1.53
-1.525
-1.51
-1.51
-1.51
-1.51
-1.505
-1.5
-1.5
-1.485
-1.475
-1.45
-1.425
-1.43
-1.42
-1.405
-1.395
-1.37
-1.375
-1.375
-1.385
-1.38
-1.37
-1.37
-1.36
-1.36
-1.36
-1.37
-1.375
-1.37
-1.37
-1.375
-1.375
-1.375
-1.385
-1.385
-1.38
-1.375
-1.375
-1.37
-1.355
-1.36
-1.375
-1.39
-1.41
-1.435
-1.44
-1.46
-1.47
-1.49
-1.505
-1.53
-1.54
-1.56
-1.56
-1.575
-1.58
-1.585
-1.59
-1.6
-1.585
-1.59
-1.58
-1.58
-1.585
-1.58
-1.585
-1.595
-1.62
-1.625
-1.615
-1.6
-1.59
-1.59
-1.595
-1.595
-1.595
-1.605
-1.615
-1.61
-1.595
-1.585
-1.58
-1.59
-1.59
-1.6
-1.595
-1.59
-1.59
-1.595
-1.61
-1.615
-1.62
-1.615
-1.61
-1.6
-1.595
-1.595
-1.61
-1.62
-1.63
-1.63
-1.61
-1.6
-1.59
-1.59
-1.575
-1.545
-1.555
-1.56
-1.56
-1.565
-1.55
-1.54
-1.53
-1.53
-1.525
-1.525
-1.525
-1.51
-1.515
-1.515
-1.51
-1.51
-1.505
-1.51
-1.525
-1.53
-1.54
-1.565
-1.59
-1.595
-1.62
-1.635
-1.645
-1.65
-1.655
-1.66
-1.645
-1.63
-1.635
-1.65
-1.645
-1.65
-1.625
-1.625
-1.615
-1.63
-1.65
-1.65
-1.645
-1.635
-1.63
-1.645
-1.63
-1.565
-1.425
-1.195
-0.89
-0.525
-0.15
0.12
0.155
-0.105
-0.62
-1.315
-1.95
-2.23
-2.165
-1.94
-1.765
-1.67
-1.645
-1.64
-1.64
-1.635
-1.615
-1.61
-1.595
-1.595
-1.585
-1.59
-1.59
-1.595
-1.595
-1.59
-1.58
-1.575
-1.575
-1.58
-1.59
-1.59
-1.58
-1.56
-1.545
-1.56
-1.56
-1.56
-1.545
-1.545
-1.54
-1.52
-1.505
-1.515
-1.505
-1.495
-1.485
-1.48
-1.465
-1.445
-1.435
-1.415
-1.42
-1.405
-1.39
-1.37
-1.36
-1.35
-1.34
-1.34
-1.34
-1.33
-1.32
-1.325
-1.325
-1.33
-1.325
-1.325
-1.32
-1.315
-1.33
-1.325
-1.31
-1.325
-1.315
-1.315
-1.305
-1.3
-1.31
-1.325
-1.35
-1.37
-1.385
-1.405
-1.425
-1.445
-1.465
-1.475
-1.495
-1.51
-1.525
-1.525
-1.53
-1.545
-1.56
-1.575
-1.575
-1.575
-1.58
-1.59
-1.59
-1.59
-1.58
-1.575
-1.59
-1.575
-1.59
-1.61
-1.61
-1.595
-1.59
-1.585
-1.585
-1.59
-1.59
-1.605
-1.595
-1.6
-1.595
-1.615
-1.6
-1.6
-1.6
-1.61
-1.61
-1.595
-1.595
-1.6
-1.595
-1.595
-1.59
-1.585
-1.58
-1.59
-1.61
-1.62
-1.615
-1.615
-1.61
-1.6
-1.6
-1.6
-1.6
-1.61
-1.595
-1.59
-1.575
-1.56
-1.555
-1.54
-1.53
-1.525
-1.53
-1.525
-1.52
-1.515
-1.505
-1.51
-1.505
-1.51
-1.5
-1.475
-1.49
-1.505
-1.51
-1.525
-1.54
-1.54
-1.56
-1.58
-1.615
-1.63
-1.63
-1.645
-1.64
-1.63
-1.63
-1.63
-1.645
-1.65
-1.64
-1.635
-1.645
-1.635
-1.645
-1.645
-1.63
-1.62
-1.615
-1.635
-1.65
-1.665
-1.665
-1.6
-1.465
-1.255
-0.975
-0.63
-0.25
0.085
0.185
-0.055
-0.56
-1.265
-1.92
-2.24
-2.18
-1.96
-1.77
-1.665
-1.64
-1.64
-1.65
-1.64
-1.61
-1.59
-1.59
-1.595
-1.6
-1.595
-1.59
-1.59
-1.59
-1.59
-1.59
-1.575
-1.56
-1.565
-1.575
-1.575
-1.57
-1.56
-1.56
-1.56
-1.54
-1.545
-1.53
-1.53
-1.53
-1.515
-1.495
-1.49
-1.49
-1.5
-1.49
-1.465
-1.46
-1.445
-1.435
-1.42
-1.405
-1.405
-1.395
-1.385
-1.365
-1.335
-1.335
-1.34
-1.345
-1.34
-1.33
-1.335
-1.335
-1.335
-1.325
-1.32
-1.315
-1.32
-1.33
-1.34
-1.335
-1.325
-1.31
-1.295
-1.3
-1.31
-1.31
-1.32
-1.34
-1.35
-1.375
-1.39
-1.415
-1.435
-1.45
-1.475
-1.495
-1.515
-1.52
-1.51
-1.52
-1.53
-1.56
-1.56
-1.57
-1.565
-1.585
-1.59
-1.58
-1.58
-1.59
-1.59
-1.605
-1.6
-1.59
-1.585
-1.595
-1.61
-1.61
-1.61
-1.59
-1.585
-1.585
-1.595
-1.61
-1.615
-1.615
-1.615
-1.61
-1.6
-1.59
-1.595
-1.595
-1.6
-1.615
-1.615
-1.595
-1.595
-1.595
-1.605
-1.6
-1.6
-1.61
-1.62
-1.61
-1.6
-1.6
-1.615
-1.615
-1.625
-1.595
-1.58
-1.56
-1.55
-1.545
-1.53
-1.53
-1.525
-1.53
-1.53
-1.525
-1.51
-1.505
-1.505
-1.5
-1.49
-1.475
-1.475
-1.495
-1.515
-1.53
-1.54
-1.545
-1.56
-1.59
-1.615
-1.63
-1.64
-1.645
-1.645
-1.63
-1.63
-1.64
-1.645
-1.645
-1.65
-1.645
-1.63
-1.635
-1.65
-1.655
-1.66
-1.625
-1.615
-1.615
-1.625
-1.645
-1.625
-1.59
-1.49
-1.34
-1.14
-0.915
-0.63
-0.355
-0.21
-0.3
-0.665
-1.225
-1.87
-2.32
-2.4
-2.195
-1.94
-1.765
-1.665
-1.63
-1.62
-1.61
-1.605
-1.595
-1.59
-1.59
-1.58
-1.575
-1.575
-1.575
-1.575
-1.56
-1.555
-1.56
-1.56
-1.545
-1.555
-1.53
-1.53
-1.53
-1.54
-1.545
-1.53
-1.51
-1.51
-1.495
-1.495
-1.495
-1.475
-1.475
-1.47
-1.47
-1.47
-1.455
-1.445
-1.42
-1.41
-1.405
-1.395
-1.385
-1.37
-1.36
-1.35
-1.34
-1.345
-1.35
-1.36
-1.345
-1.325
-1.325
-1.325
-1.335
-1.34
-1.335
-1.325
-1.32
-1.325
-1.335
-1.345
-1.34
-1.345
-1.34
-1.315
-1.3
-1.31
-1.32
-1.33
-1.335
-1.345
-1.375
-1.39
-1.405
-1.43
-1.455
-1.47
-1.49
-1.505
-1.53
-1.54
-1.545
-1.555
-1.545
-1.555
-1.56
-1.555
-1.545
-1.56
-1.575
-1.585
-1.59
-1.595
-1.595
-1.595
-1.6
-1.61
-1.595
-1.595
-1.585
-1.585
-1.58
-1.585
-1.59
-1.59
-1.595
-1.6
-1.595
-1.575
-1.575
-1.58
-1.595
-1.62
-1.615
-1.61
-1.6
-1.615
-1.61
-1.59
-1.6
-1.6
-1.61
-1.61
-1.595
-1.59
-1.595
-1.59
-1.58
-1.57
-1.545
-1.53
-1.525
-1.53
-1.54
-1.54
-1.53
-1.54
-1.54
-1.53
-1.525
-1.505
-1.495
-1.495
-1.485
-1.475
-1.475
-1.485
-1.515
-1.53
-1.54
-1.53
-1.56
-1.585
-1.615
-1.635
-1.63
-1.645
-1.65
-1.66
-1.655
-1.645
-1.65
-1.645
-1.635
-1.645
-1.645
-1.645
-1.65
-1.65
-1.645
-1.645
-1.63
-1.62
-1.625
-1.625
-1.625
-1.59
-1.47
-1.32
-1.135
-0.91
-0.65
-0.4
-0.28
-0.43
-0.85
-1.505
-2.11
-2.425
-2.355
-2.105
-1.86
-1.72
-1.665
-1.645
-1.63
-1.63
-1.615
-1.61
-1.605
-1.595
-1.595
-1.58
-1.58
-1.58
-1.58
-1.57
-1.56
-1.56
-1.56
-1.565
-1.555
-1.54
-1.54
-1.55
-1.545
-1.54
-1.525
-1.515
-1.525
-1.525
-1.53
-1.515
-1.505
-1.51
-1.505
-1.495
-1.46
-1.44
-1.435
-1.44
-1.44
-1.415
-1.405
-1.39
-1.375
-1.365
-1.37
-1.355
-1.36
-1.36
-1.355
-1.355
-1.34
-1.345
-1.35
-1.345
-1.35
-1.345
-1.35
-1.345
-1.35
-1.355
-1.355
-1.36
-1.345
-1.345
-1.34
-1.345
-1.35
-1.37
-1.385
-1.395
-1.405
-1.415
-1.435
-1.45
-1.47
-1.495
-1.495
-1.51
-1.53
-1.545
-1.56
-1.565
-1.56
-1.56
-1.56
-1.57
-1.59
-1.58
-1.58
-1.58
-1.565
-1.58
-1.595
-1.595
-1.61
-1.61
-1.61
-1.6
-1.595
-1.595
-1.59
-1.595
-1.595
-1.59
-1.59
-1.58
-1.575
-1.575
-1.58
-1.59
-1.595
-1.59
-1.58
-1.585
-1.585
-1.595
-1.61
-1.61
-1.615
-1.61
-1.6
-1.61
-1.61
-1.61
-1.6
-1.6
-1.595
-1.595
-1.595
-1.59
-1.575
-1.565
-1.555
-1.545
-1.555
-1.54
-1.535
-1.53
-1.535
-1.545
-1.54
-1.53
-1.525
-1.52
-1.51
-1.51
-1.5
-1.51
-1.51
-1.505
-1.51
-1.53
-1.56
-1.585
-1.6
-1.625
-1.645
-1.635
-1.63
-1.635
-1.65
-1.65
-1.65
-1.645
-1.63
-1.635
-1.63
-1.635
-1.63
-1.635
-1.645
-1.65
-1.65
-1.65
-1.645
-1.65
-1.68
-1.665
-1.615
-1.505
-1.295
-0.99
-0.65
-0.265
0.085
0.225
0.065
-0.375
-1.04
-1.75
-2.195
-2.235
-2.025
-1.815
-1.68
-1.65
-1.65
-1.66
-1.65
-1.63
-1.62
-1.605
-1.615
-1.61
-1.595
-1.595
-1.595
-1.595
-1.595
-1.58
-1.58
-1.58
-1.58
-1.585
-1.58
-1.58
-1.575
-1.585
-1.585
-1.585
-1.575
-1.555
-1.545
-1.55
-1.53
-1.53
-1.52
-1.51
-1.485
-1.495
-1.47
-1.45
-1.435
-1.43
-1.435
-1.435
-1.425
-1.405
-1.385
-1.375
-1.37
-1.36
-1.36
-1.36
-1.35
-1.34
-1.325
-1.315
-1.315
-1.315
-1.31
-1.31
-1.32
-1.335
-1.335
-1.335
-1.32
-1.32
-1.32
-1.32
-1.32
-1.32
-1.33
-1.35
-1.37
-1.375
-1.41
-1.44
-1.47
-1.475
-1.475
-1.51
-1.53
-1.54
-1.55
-1.56
-1.56
-1.565
-1.565
-1.57
-1.58
-1.59
-1.6
-1.595
-1.59
-1.58
-1.59
-1.6
-1.615
-1.62
-1.61
-1.615
-1.615
-1.62
-1.615
-1.6
-1.61
-1.62
-1.61
-1.61
-1.61
-1.62
-1.62
-1.625
-1.625
-1.62
-1.625
-1.625
-1.62
-1.62
-1.615
-1.62
-1.645
-1.645
-1.645
-1.635
-1.62
-1.625
-1.63
-1.63
-1.625
-1.62
-1.63
-1.63
-1.63
-1.615
-1.61
-1.6
-1.585
-1.56
-1.545
-1.54
-1.54
-1.54
-1.54
-1.545
-1.54
-1.54
-1.53
-1.53
-1.53
-1.515
-1.515
-1.53
-1.54
-1.555
-1.56
-1.575
-1.59
-1.61
-1.62
-1.63
-1.63
-1.65
-1.665
-1.665
-1.68
-1.68
-1.665
-1.67
-1.645
-1.65
-1.65
-1.665
-1.68
-1.685
-1.665
-1.65
-1.645
-1.65
-1.65
-1.66
-1.665
-1.63
-1.505
-1.29
-0.98
-0.59
-0.175
0.13
0.14
-0.195
-0.8
-1.58
-2.165
-2.285
-2.095
-1.87
-1.715
-1.65
-1.65
-1.66
-1.66
-1.65
-1.625
-1.615
-1.63
-1.63
-1.63
-1.62
-1.615
-1.62
-1.6
-1.605
-1.605
-1.62
-1.62
-1.595
-1.58
-1.575
-1.58
-1.59
-1.58
-1.58
-1.565
-1.56
-1.56
-1.56
-1.555
-1.545
-1.535
-1.525
-1.51
-1.51
-1.505
-1.49
-1.47
-1.455
-1.445
-1.445
-1.43
-1.41
-1.385
-1.365
-1.355
-1.355
-1.365
-1.37
-1.375
-1.375
-1.355
-1.345
-1.34
-1.33
-1.34
-1.35
-1.35
-1.345
-1.315
-1.32
-1.325
-1.325
-1.32
-1.32
-1.325
-1.325
-1.34
-1.35
-1.36
-1.38
-1.4
-1.425
-1.45
-1.48
-1.505
-1.515
-1.515
-1.51
-1.53
-1.55
-1.565
-1.565
-1.58
-1.58
-1.585
-1.59
-1.61
-1.61
-1.6
-1.595
-1.61
-1.62
-1.615
-1.62
-1.615
-1.62
-1.595
-1.61
-1.62
-1.62
-1.63
-1.625
-1.62
-1.615
-1.61
-1.62
-1.615
-1.63
-1.63
-1.63
-1.63
-1.625
-1.625
-1.615
-1.615
-1.615
-1.625
-1.635
-1.63
-1.625
-1.625
-1.625
-1.63
-1.63
-1.625
-1.615
-1.61
-1.595
-1.595
-1.59
-1.565
-1.56
-1.57
-1.565
-1.56
-1.56
-1.545
-1.555
-1.53
-1.51
-1.5
-1.495
-1.485
-1.505
-1.5
-1.51
-1.53
-1.54
-1.53
-1.54
-1.575
-1.61
-1.64
-1.65
-1.66
-1.65
-1.655
-1.66
-1.66
-1.66
-1.66
-1.66
-1.665
-1.67
-1.665
-1.665
-1.66
-1.66
-1.67
-1.67
-1.665
-1.65
-1.65
-1.65
-1.65
-1.645
-1.575
-1.45
-1.265
-1.05
-0.795
-0.505
-0.28
-0.27
-0.56
-1.115
-1.815
-2.345
-2.45
-2.26
-1.99
-1.805
-1.715
-1.68
-1.66
-1.645
-1.625
-1.615
-1.595
-1.595
-1.59
-1.595
-1.595
-1.6
-1.605
-1.595
-1.59
-1.58
-1.58
-1.58
-1.58
-1.575
-1.565
-1.56
-1.545
-1.545
-1.54
-1.53
-1.53
-1.525
-1.51
-1.51
-1.51
-1.515
-1.51
-1.495
-1.465
-1.46
-1.445
-1.435
-1.425
-1.41
-1.42
-1.41
-1.39
-1.375
-1.365
-1.365
-1.36
-1.365
-1.36
-1.35
-1.35
-1.345
-1.34
-1.33
-1.34
-1.345
-1.37
-1.37
-1.37
-1.355
-1.345
-1.335
-1.325
-1.335
-1.335
-1.335
-1.335
-1.345
-1.355
-1.37
-1.375
-1.395
-1.42
-1.44
-1.46
-1.475
-1.495
-1.52
-1.54
-1.55
-1.56
-1.58
-1.575
-1.58
-1.585
-1.58
-1.59
-1.58
-1.58
-1.58
-1.59
-1.61
-1.595
-1.59
-1.58
-1.595
-1.6
-1.62
-1.62
-1.615
-1.61
-1.6
-1.61
-1.61
-1.61
-1.615
-1.615
-1.625
-1.63
-1.63
-1.615
-1.59
-1.595
-1.61
-1.62
-1.625
-1.615
-1.615
-1.615
-1.625
-1.63
-1.63
-1.625
-1.635
-1.625
-1.63
-1.615
-1.6
-1.595
-1.58
-1.58
-1.565
-1.55
-1.55
-1.545
-1.555
-1.545
-1.55
-1.545
-1.54
-1.535
-1.52
-1.505
-1.505
-1.505
-1.505
-1.51
-1.525
-1.545
-1.575
-1.595
-1.61
-1.62
-1.62
-1.645
-1.665
-1.68
-1.68
-1.68
-1.68
-1.68
-1.67
-1.66
-1.645
-1.65
-1.665
-1.65
-1.65
-1.665
-1.67
-1.68
-1.66
-1.645
-1.63
-1.615
-1.58
-1.495
-1.37
-1.215
-1.015
-0.75
-0.485
-0.305
-0.34
-0.65
-1.21
-1.855
-2.32
-2.405
-2.215
-1.975
-1.795
-1.695
-1.65
-1.625
-1.62
-1.63
-1.65
-1.63
-1.62
-1.595
-1.59
-1.59
-1.59
-1.59
-1.595
-1.595
-1.595
-1.59
-1.58
-1.56
-1.565
-1.585
-1.585
-1.58
-1.56
-1.54
-1.54
-1.53
-1.54
-1.53
-1.53
-1.53
-1.515
-1.495
-1.49
-1.48
-1.46
-1.445
-1.43
-1.44
-1.435
-1.43
-1.405
-1.385
-1.375
-1.375
-1.385
-1.385
-1.375
-1.37
-1.365
-1.37
-1.37
-1.36
-1.365
-1.355
-1.355
-1.36
-1.37
-1.37
-1.37
-1.37
-1.365
-1.355
-1.37
-1.37
-1.365
-1.37
-1.37
-1.395
-1.42
-1.425
-1.435
-1.435
-1.455
-1.475
-1.515
-1.53
-1.56
-1.555
-1.56
-1.55
-1.56
-1.575
-1.575
-1.58
-1.59
-1.6
-1.615
-1.62
-1.61
-1.595
-1.595
-1.59
-1.595
-1.6
-1.595
-1.61
-1.615
-1.615
-1.615
-1.61
-1.61
-1.595
-1.595
-1.59
-1.585
-1.575
-1.59
-1.62
-1.65
-1.62
-1.61
-1.59
-1.61
-1.615
-1.62
-1.625
-1.62
-1.615
-1.615
-1.615
-1.615
-1.61
-1.6
-1.595
-1.595
-1.61
-1.62
-1.63
-1.615
-1.595
-1.575
-1.565
-1.56
-1.545
-1.55
-1.545
-1.54
-1.53
-1.53
-1.525
-1.52
-1.51
-1.51
-1.505
-1.51
-1.53
-1.54
-1.555
-1.56
-1.58
-1.595
-1.59
-1.61
-1.62
-1.64
-1.665
-1.655
-1.66
-1.66
-1.665
-1.66
-1.645
-1.645
-1.65
-1.65
-1.65
-1.65
-1.65
-1.65
-1.65
-1.65
-1.645
-1.645
-1.645
-1.65
-1.65
-1.58
-1.425
-1.175
-0.875
-0.53
-0.165
0.11
0.2
-0.035
-0.545
-1.225
-1.905
-2.225
-2.165
-1.955
-1.775
-1.695
-1.66
-1.66
-1.65
-1.645
-1.65
-1.635
-1.63
-1.62
-1.615
-1.615
-1.595
-1.595
-1.59
-1.59
-1.59
-1.59
-1.59
-1.585
-1.58
-1.565
-1.56
-1.555
-1.56
-1.56
-1.56
-1.57
-1.56
-1.545
-1.54
-1.53
-1.53
-1.525
-1.505
-1.505
-1.505
-1.5
-1.47
-1.45
-1.43
-1.43
-1.415
-1.395
-1.385
-1.385
-1.375
-1.36
-1.33
-1.345
-1.335
-1.335
-1.33
-1.315
-1.32
-1.315
-1.325
-1.315
-1.305
-1.3
-1.3
-1.305
-1.305
-1.31
-1.3
-1.295
-1.305
-1.32
-1.335
-1.345
-1.35
-1.375
-1.405
-1.445
-1.47
-1.49
-1.5
-1.495
-1.51
-1.53
-1.555
-1.56
-1.565
-1.56
-1.565
-1.575
-1.58
-1.58
-1.58
-1.575
-1.59
-1.585
-1.595
-1.59
-1.595
-1.61
-1.595
-1.595
-1.59
-1.59
-1.595
-1.61
-1.615
-1.62
-1.625
-1.63
-1.615
-1.605
-1.6
-1.615
-1.615
-1.62
-1.615
-1.6
-1.59
-1.59
-1.61
-1.63
-1.63
-1.63
-1.615
-1.61
-1.61
-1.61
-1.62
-1.615
-1.615
-1.615
-1.62
-1.625
-1.615
-1.61
-1.59
-1.56
-1.54
-1.53
-1.53
-1.545
-1.53
-1.525
-1.53
-1.53
-1.525
-1.515
-1.51
-1.515
-1.51
-1.515
-1.51
-1.51
-1.51
-1.53
-1.56
-1.595
-1.61
-1.62
-1.635
-1.65
-1.65
-1.655
-1.665
-1.66
-1.66
-1.66
-1.65
-1.65
-1.65
-1.645
-1.645
-1.63
-1.63
-1.64
-1.645
-1.65
-1.65
-1.645
-1.65
-1.655
-1.66
-1.61
-1.45
-1.215
-0.905
-0.555
-0.17
0.11
0.175
-0.05
-0.53
-1.225
-1.885
-2.215
-2.165
-1.95
-1.77
-1.685
-1.665
-1.65
-1.635
-1.635
-1.63
-1.625
-1.61
-1.605
-1.595
-1.61
-1.615
-1.6
-1.595
-1.59
-1.59
-1.59
-1.58
-1.565
-1.56
-1.57
-1.575
-1.56
-1.55
-1.535
-1.54
-1.545
-1.54
-1.53
-1.525
-1.5
-1.485
-1.5
-1.495
-1.49
-1.47
-1.465
-1.45
-1.445
-1.44
-1.425
-1.405
-1.39
-1.37
-1.345
-1.335
-1.325
-1.315
-1.295
-1.295
-1.295
-1.3
-1.3
-1.295
-1.285
-1.28
-1.29
-1.305
-1.305
-1.29
-1.28
-1.265
-1.255
-1.26
-1.265
-1.26
-1.275
-1.27
-1.285
-1.315
-1.34
-1.37
-1.385
-1.4
-1.44
-1.465
-1.475
-1.48
-1.47
-1.495
-1.52
-1.54
-1.545
-1.56
-1.555
-1.56
-1.555
-1.56
-1.565
-1.565
-1.575
-1.575
-1.58
-1.58
-1.585
-1.575
-1.58
-1.585
-1.595
-1.595
-1.595
-1.59
-1.59
-1.59
-1.58
-1.58
-1.59
-1.595
-1.595
-1.6
-1.61
-1.61
-1.6
-1.595
-1.605
-1.61
-1.59
-1.585
-1.59
-1.595
-1.62
-1.595
-1.585
-1.56
-1.555
-1.56
-1.56
-1.56
-1.55
-1.53
-1.515
-1.51
-1.505
-1.51
-1.515
-1.51
-1.505
-1.495
-1.49
-1.47
-1.455
-1.44
-1.45
-1.47
-1.505
-1.53
-1.54
-1.56
-1.56
-1.58
-1.595
-1.61
-1.61
-1.62
-1.62
-1.615
-1.62
-1.645
-1.635
-1.65
-1.65
-1.65
-1.66
-1.645
-1.625
-1.63
-1.62
-1.63
-1.62
-1.61
-1.595
-1.59
-1.585
-1.5
-1.365
-1.215
-1.045
-0.855
-0.62
-0.405
-0.35
-0.555
-1.0
-1.625
-2.195
-2.435
-2.315
-2.045
-1.82
-1.695
-1.635
-1.61
-1.6
-1.595
-1.6
-1.58
-1.56
-1.545
-1.555
-1.56
-1.56
-1.56
-1.545
-1.545
-1.56
-1.555
-1.555
-1.54
-1.53
-1.5
-1.52
-1.51
-1.515
-1.51
-1.515
-1.51
-1.505
-1.485
-1.47
-1.47
-1.475
-1.47
-1.465
-1.45
-1.445
-1.42
-1.41
-1.395
-1.39
-1.375
-1.365
-1.365
-1.36
-1.35
-1.345
-1.335
-1.325
-1.31
-1.31
-1.315
-1.31
-1.31
-1.3
-1.295
-1.305
-1.31
-1.3
-1.305
-1.3
-1.29
-1.29
-1.285
-1.295
-1.295
-1.3
-1.31
-1.31
-1.325
-1.34
-1.355
-1.375
-1.38
-1.405
-1.435
-1.46
-1.475
-1.49
-1.49
-1.495
-1.515
-1.53
-1.535
-1.535
-1.54
-1.55
-1.55
-1.565
-1.58
-1.58
-1.57
-1.575
-1.57
-1.575
-1.56
-1.55
-1.545
-1.565
-1.59
-1.6
-1.605
-1.6
-1.59
-1.59
-1.595
-1.595
-1.595
-1.59
-1.595
-1.595
-1.595
-1.61
-1.6
-1.595
-1.59
-1.575
-1.575
-1.585
-1.59
-1.595
-1.6
-1.6
-1.595
-1.615
-1.615
-1.615
-1.605
-1.6
-1.6
-1.59
-1.575
-1.555
-1.54
-1.535
-1.53
-1.53
-1.52
-1.52
-1.52
-1.525
-1.51
-1.505
-1.49
-1.49
-1.495
-1.5
-1.49
-1.51
-1.53
-1.545
-1.56
-1.585
-1.585
-1.595
-1.615
-1.625
-1.625
-1.635
-1.645
-1.655
-1.665
-1.66
-1.64
-1.635
-1.645
-1.645
-1.645
-1.645
-1.645
-1.65
-1.65
-1.645
-1.625
-1.615
-1.615
-1.62
-1.595
-1.505
-1.33
-1.105
-0.835
-0.53
-0.22
-0.065
-0.165
-0.56
-1.185
-1.865
-2.32
-2.33
-2.125
-1.89
-1.74
-1.68
-1.65
-1.65
-1.63
-1.62
-1.595
-1.585
-1.585
-1.585
-1.59
-1.59
-1.6
-1.595
-1.575
-1.57
-1.565
-1.56
-1.56
-1.56
-1.565
-1.565
-1.55
-1.545
-1.53
-1.53
-1.53
-1.54
-1.545
-1.53
-1.525
-1.53
-1.515
-1.495
-1.47
-1.45
-1.445
-1.44
-1.44
-1.44
-1.43
-1.405
-1.395
-1.37
-1.37
-1.35
-1.35
-1.345
-1.33
-1.34
-1.315
-1.315
-1.315
-1.325
-1.32
-1.315
-1.32
-1.305
-1.3
-1.3
-1.305
-1.315
-1.315
-1.315
-1.31
-1.305
-1.305
-1.31
-1.325
-1.34
-1.36
-1.375
-1.375
-1.395
-1.42
-1.45
-1.475
-1.5
-1.515
-1.53
-1.54
-1.545
-1.545
-1.54
-1.55
-1.575
-1.565
-1.575
-1.575
-1.575
-1.585
-1.58
-1.585
-1.59
-1.59
-1.61
-1.61
-1.61
-1.595
-1.59
-1.595
-1.59
-1.595
-1.6
-1.595
-1.58
-1.575
-1.585
-1.59
-1.595
-1.595
-1.6
-1.61
-1.6
-1.595
-1.6
-1.6
-1.615
-1.615
-1.615
-1.615
-1.625
-1.615
-1.615
-1.61
-1.595
-1.595
-1.595
-1.585
-1.58
-1.58
-1.59
-1.62
-1.6
-1.58
-1.555
-1.535
-1.53
-1.525
-1.515
-1.51
-1.515
-1.525
-1.515
-1.505
-1.505
-1.505
-1.5
-1.51
-1.52
-1.525
-1.53
-1.54
-1.55
-1.56
-1.575
-1.58
-1.595
-1.625
-1.65
-1.65
-1.65
-1.65
-1.635
-1.635
-1.63
-1.635
-1.645
-1.63
-1.625
-1.63
-1.635
-1.625
-1.62
-1.645
-1.635
-1.63
-1.63
-1.65
-1.66
-1.605
-1.47
-1.235
-0.925
-0.56
-0.175
0.14
0.24
0.015
-0.5
-1.25
-1.94
-2.25
-2.175
-1.95
-1.77
-1.665
-1.63
-1.635
-1.645
-1.65
-1.645
-1.63
-1.615
-1.6
-1.605
-1.595
-1.595
-1.595
-1.595
-1.595
-1.59
-1.58
-1.58
-1.58
-1.57
-1.58
-1.56
-1.56
-1.565
-1.575
-1.58
-1.56
-1.565
-1.555
-1.545
-1.54
-1.52
-1.505
-1.505
-1.495
-1.485
-1.485
-1.485
-1.47
-1.455
-1.435
-1.405
-1.405
-1.395
-1.38
-1.365
-1.35
-1.345
-1.34
-1.325
-1.315
-1.3
-1.305
-1.295
-1.305
-1.315
-1.31
-1.3
-1.3
-1.29
-1.28
-1.27
-1.265
-1.26
-1.255
-1.265
-1.285
-1.29
-1.31
-1.315
-1.32
-1.335
-1.345
-1.39
-1.405
-1.43
-1.445
-1.475
-1.505
-1.525
-1.535
-1.545
-1.54
-1.54
-1.55
-1.565
-1.585
-1.59
-1.585
-1.575
-1.575
-1.59
-1.6
-1.615
-1.61
-1.61
-1.605
-1.595
-1.61
-1.61
-1.615
-1.61
-1.61
-1.6
-1.61
-1.615
-1.615
-1.62
-1.62
-1.63
-1.62
-1.625
-1.625
-1.63
-1.645
-1.625
-1.62
-1.615
-1.615
-1.62
-1.62
-1.62
-1.625
-1.625
-1.625
-1.62
-1.615
-1.615
-1.61
-1.61
-1.61
-1.61
-1.61
-1.61
-1.595
-1.585
-1.565
-1.55
-1.555
-1.555
-1.56
-1.55
-1.545
-1.54
-1.54
-1.53
-1.53
-1.52
-1.51
-1.495
-1.495
-1.53
-1.52
-1.54
-1.55
-1.565
-1.59
-1.6
-1.615
-1.64
-1.66
-1.675
-1.665
-1.665
-1.665
-1.665
-1.665
-1.66
-1.665
-1.665
-1.66
-1.645
-1.65
-1.65
-1.65
-1.65
-1.66
-1.655
-1.655
-1.65
-1.645
-1.605
-1.495
-1.345
-1.115
-0.86
-0.545
-0.225
-0.045
-0.095
-0.44
-1.025
-1.715
-2.24
-2.345
-2.165
-1.935
-1.77
-1.7
-1.66
-1.65
-1.65
-1.63
-1.635
-1.61
-1.6
-1.59
-1.59
-1.6
-1.61
-1.615
-1.6
-1.59
-1.59
-1.58
-1.575
-1.565
-1.56
-1.56
-1.56
-1.56
-1.55
-1.54
-1.525
-1.525
-1.53
-1.54
-1.54
-1.525
-1.51
-1.495
-1.485
-1.465
-1.46
-1.46
-1.445
-1.43
-1.41
-1.415
-1.41
-1.375
-1.365
-1.35
-1.345
-1.345
-1.33
-1.345
-1.33
-1.315
-1.295
-1.29
-1.31
-1.315
-1.315
-1.315
-1.3
-1.3
-1.295
-1.295
-1.3
-1.295
-1.285
-1.285
-1.29
-1.29
-1.295
-1.305
-1.335
-1.36
-1.39
-1.415
-1.415
-1.44
-1.46
-1.48
-1.5
-1.505
-1.515
-1.535
-1.55
-1.56
-1.575
-1.58
-1.585
-1.585
-1.59
-1.585
-1.61
-1.59
-1.595
-1.595
-1.605
-1.615
-1.62
-1.615
-1.62
-1.615
-1.61
-1.595
-1.6
-1.61
-1.61
-1.61
-1.62
-1.62
-1.625
-1.63
-1.635
-1.63
-1.63
-1.615
-1.61
-1.615
-1.625
-1.63
-1.625
-1.615
-1.61
-1.615
-1.625
-1.63
-1.62
-1.595
-1.59
-1.6
-1.62
-1.63
-1.615
-1.59
-1.58
-1.54
-1.54
-1.545
-1.57
-1.58
-1.56
-1.545
-1.54
-1.53
-1.53
-1.53
-1.51
-1.505
-1.505
-1.53
-1.53
-1.545
-1.545
-1.545
-1.55
-1.56
-1.595
-1.63
-1.665
-1.68
-1.68
-1.68
-1.68
-1.68
-1.68
-1.68
-1.68
-1.665
-1.66
-1.66
-1.655
-1.655
-1.655
-1.655
-1.65
-1.645
-1.65
-1.63
-1.63
-1.62
-1.575
-1.44
-1.29
-1.09
-0.86
-0.59
-0.345
-0.275
-0.455
-0.885
-1.505
-2.11
-2.405
-2.345
-2.12
-1.9
-1.745
-1.68
-1.67
-1.65
-1.635
-1.62
-1.62
-1.615
-1.62
-1.615
-1.6
-1.59
-1.61
-1.595
-1.595
-1.59
-1.59
-1.59
-1.59
-1.58
-1.565
-1.555
-1.545
-1.54
-1.55
-1.56
-1.57
-1.575
-1.555
-1.55
-1.54
-1.525
-1.485
-1.5
-1.505
-1.495
-1.48
-1.47
-1.46
-1.44
-1.435
-1.42
-1.415
-1.41
-1.41
-1.4
-1.385
-1.37
-1.36
-1.36
-1.365
-1.37
-1.36
-1.35
-1.35
-1.35
-1.345
-1.34
-1.325
-1.34
-1.345
-1.35
-1.365
-1.355
-1.345
-1.35
-1.355
-1.36
-1.37
-1.36
-1.375
-1.385
-1.405
-1.435
-1.46
-1.505
-1.525
-1.53
-1.54
-1.545
-1.555
-1.56
-1.575
-1.58
-1.59
-1.6
-1.61
-1.605
-1.6
-1.595
-1.595
-1.59
-1.59
-1.595
-1.62
-1.63
-1.62
