-9.345
-9.325
-9.295
-9.255
-9.21
-9.185
-9.165
-9.18
-9.185
-9.17
-9.185
-9.175
-9.185
-9.205
-9.215
-9.22
-9.23
-9.255
-9.255
-9.265
-9.29
-9.28
-9.275
-9.255
-9.245
-9.27
-9.265
-9.26
-9.265
-9.275
-9.28
-9.315
-9.345
-9.4
-9.42
-9.42
-9.44
-9.4
-9.385
-9.375
-9.39
-9.4
-9.395
-9.415
-9.425
-9.46
-9.505
-9.525
-9.55
-9.555
-9.555
-9.535
-9.51
-9.465
-9.43
-9.39
-9.355
-9.335
-9.31
-9.305
-9.33
-9.315
-9.3
-9.26
-9.155
-9.015
-8.89
-8.795
-8.755
-8.745
-8.735
-8.66
-8.535
-8.375
-8.245
-8.24
-8.435
-8.82
-9.32
-9.81
-10.185
-10.39
-10.49
-10.52
-10.545
-10.6
-10.655
-10.72
-10.765
-10.785
-10.765
-10.735
-10.68
-10.68
-10.66
-10.65
-10.615
-10.56
-10.465
-10.325
-10.15
-9.96
-9.785
-9.645
-9.57
-9.53
-9.53
-9.535
-9.54
-9.515
-9.445
-9.39
-9.32
-9.305
-9.35
-9.405
-9.47
-9.495
-9.495
-9.48
-9.465
-9.45
-9.47
-9.47
-9.475
-9.48
-9.46
-9.455
-9.465
-9.48
-9.51
-9.53
-9.55
-9.555
-9.535
-9.515
-9.52
-9.5
-9.52
-9.565
-9.585
-9.6
-9.635
-9.64
-9.63
-9.59
-9.555
-9.55
-9.555
-9.59
-9.61
-9.635
-9.64
-9.615
-9.62
-9.6
-9.58
-9.57
-9.53
-9.495
-9.46
-9.44
-9.405
-9.4
-9.43
-9.45
-9.48
-9.49
-9.47
-9.44
-9.4
-9.38
-9.355
-9.325
-9.345
-9.335
-9.34
-9.345
-9.335
-9.315
-9.305
-9.28
-9.265
-9.26
-9.27
-9.28
-9.28
-9.29
-9.34
-9.405
-9.455
-9.47
-9.445
-9.425
-9.42
-9.435
-9.465
-9.475
-9.485
-9.46
-9.435
-9.43
-9.435
-9.45
-9.485
-9.485
-9.48
-9.435
-9.4
-9.365
-9.36
-9.385
-9.375
-9.41
-9.425
-9.47
-9.515
-9.57
-9.58
-9.59
-9.58
-9.57
-9.555
-9.545
-9.52
-9.525
-9.515
-9.505
-9.495
-9.46
-9.455
-9.475
-9.495
-9.525
-9.55
-9.56
-9.57
-9.6
-9.63
-9.64
-9.625
-9.58
-9.54
-9.5
-9.475
-9.445
-9.43
-9.405
-9.355
-9.325
-9.28
-9.26
-9.26
-9.26
-9.27
-9.285
-9.33
-9.41
-9.52
-9.66
-9.785
-9.835
-9.775
-9.61
-9.31
-8.895
-8.45
-8.08
-7.835
-7.785
-7.91
-8.17
-8.49
-8.82
-9.09
-9.35
-9.565
-9.74
-9.87
-9.965
-10.0
-10.035
-10.06
-10.07
-10.095
-10.065
-9.99
-9.895
-9.825
-9.755
-9.72
-9.725
-9.735
-9.765
-9.785
-9.78
-9.75
-9.715
-9.67
-9.66
-9.66
-9.645
-9.665
-9.66
-9.67
-9.655
-9.66
-9.675
-9.695
-9.695
-9.69
-9.68
-9.66
-9.665
-9.66
-9.675
-9.67
-9.68
-9.71
-9.73
-9.745
-9.76
-9.77
-9.79
-9.795
-9.78
-9.765
-9.76
-9.755
-9.775
-9.815
-9.845
-9.87
-9.89
-9.89
-9.875
-9.89
-9.91
-9.915
-9.92
-9.935
-9.925
-9.92
-9.97
-9.985
-10.005
-10.02
-10.02
-10.0
-10.0
-9.975
-9.92
-9.895
-9.85
-9.85
-9.885
-9.915
-9.955
-9.985
-9.995
-10.0
-9.955
-9.905
-9.82
-9.765
-9.73
-9.7
-9.72
-9.75
-9.76
-9.77
-9.76
-9.73
-9.685
-9.64
-9.635
-9.63
-9.665
-9.67
-9.645
-9.64
-9.62
-9.565
-9.535
-9.535
-9.545
-9.56
-9.58
-9.6
-9.57
-9.52
-9.485
-9.47
-9.485
-9.55
-9.61
-9.64
-9.635
-9.605
-9.565
-9.54
-9.505
-9.5
-9.505
-9.53
-9.545
-9.555
-9.535
-9.53
-9.52
-9.555
-9.6
-9.615
-9.61
-9.575
-9.535
-9.54
-9.55
-9.56
-9.595
-9.605
-9.615
-9.605
-9.61
-9.61
-9.595
-9.565
-9.515
-9.475
-9.445
-9.46
-9.495
-9.53
-9.555
-9.555
-9.55
-9.535
-9.53
-9.51
-9.485
-9.48
-9.46
-9.44
-9.44
-9.46
-9.53
-9.6
-9.675
-9.68
-9.675
-9.66
-9.63
-9.59
-9.56
-9.55
-9.52
-9.515
-9.525
-9.515
-9.51
-9.505
-9.495
-9.49
-9.51
-9.525
-9.55
-9.55
-9.555
-9.525
-9.49
-9.435
-9.385
-9.34
-9.35
-9.38
-9.44
-9.5
-9.53
-9.53
-9.525
-9.51
-9.505
-9.515
-9.495
-9.51
-9.475
-9.48
-9.455
-9.405
-9.395
-9.395
-9.4
-9.415
-9.43
-9.45
-9.45
-9.42
-9.38
-9.345
-9.335
-9.345
-9.355
-9.385
-9.425
-9.465
-9.475
-9.47
-9.435
-9.39
-9.37
-9.365
-9.39
-9.41
-9.385
-9.375
-9.345
-9.335
-9.36
-9.39
-9.405
-9.415
-9.41
-9.415
-9.4
-9.36
-9.35
-9.345
-9.35
-9.34
-9.335
-9.335
-9.305
-9.255
-9.235
-9.215
-9.21
-9.215
-9.235
-9.23
-9.205
-9.17
-9.19
-9.215
-9.255
-9.305
-9.345
-9.355
-9.35
-9.335
-9.275
-9.245
-9.2
-9.165
-9.175
-9.205
-9.24
-9.29
-9.28
-9.295
-9.34
-9.375
-9.43
-9.485
-9.505
-9.525
-9.53
-9.51
-9.485
-9.435
-9.425
-9.42
-9.435
-9.455
-9.48
-9.495
-9.495
-9.48
-9.485
-9.505
-9.55
-9.56
-9.555
-9.535
-9.495
-9.47
-9.485
-9.525
-9.545
-9.52
-9.465
-9.34
-9.205
-9.075
-8.955
-8.87
-8.875
-8.95
-9.015
-9.05
-9.005
-8.84
-8.635
-8.45
-8.32
-8.315
-8.525
-8.855
-9.32
-9.79
-10.16
-10.405
-10.54
-10.57
-10.575
-10.565
-10.585
-10.62
-10.645
-10.62
-10.64
-10.645
-10.66
-10.67
-10.71
-10.735
-10.73
-10.67
-10.56
-10.4
-10.195
-10.02
-9.89
-9.765
-9.675
-9.6
-9.545
-9.525
-9.525
-9.5
-9.465
-9.425
-9.37
-9.335
-9.29
-9.3
-9.315
-9.335
-9.39
-9.43
-9.48
-9.48
-9.445
-9.39
-9.315
-9.255
-9.23
-9.245
-9.29
-9.39
-9.45
-9.48
-9.485
-9.455
-9.385
-9.345
-9.325
-9.33
-9.42
-9.525
-9.595
-9.635
-9.615
-9.59
-9.57
-9.545
-9.525
-9.545
-9.59
-9.63
-9.655
-9.68
-9.63
-9.54
-9.45
-9.395
-9.395
-9.43
-9.43
-9.42
-9.355
-9.27
-9.195
-9.11
-9.015
-8.96
-8.935
-8.94
-8.95
-8.995
-9.055
-9.11
-9.105
-9.08
-9.085
-9.085
-9.135
-9.19
-9.28
-9.335
-9.36
-9.335
-9.3
-9.26
-9.17
-9.105
-9.1
-9.09
-9.105
-9.105
-9.125
-9.125
-9.155
-9.17
-9.205
-9.2
-9.22
-9.23
-9.25
-9.28
-9.305
-9.305
-9.265
-9.15
-9.025
-8.945
-8.865
-8.85
-8.9
-8.925
-8.945
-8.915
-8.905
-8.865
-8.87
-8.845
-8.865
-8.885
-8.93
-8.98
-9.065
-9.08
-9.035
-8.94
-8.825
-8.68
-8.595
-8.535
-8.555
-8.595
-8.66
-8.69
-8.69
-8.69
-8.72
-8.74
-8.725
-8.765
-8.815
-8.89
-9.005
-9.055
-9.1
-9.13
-9.135
-9.09
-9.035
-8.995
-8.975
-8.95
-8.96
-8.985
-8.98
-8.965
-8.925
-8.9
-8.93
-8.945
-8.965
-8.96
-8.945
-8.935
-8.95
-8.99
-9.03
-9.04
-9.02
-8.975
-8.91
-8.87
-8.875
-8.9
-8.935
-8.975
-9.02
-9.045
-9.07
-9.095
-9.13
-9.175
-9.2
-9.19
-9.14
-9.075
-9.075
-9.11
-9.2
-9.355
-9.535
-9.65
-9.675
-9.65
-9.515
-9.37
-9.27
-9.21
-9.22
-9.26
-9.32
-9.36
-9.36
-9.36
-9.32
-9.28
-9.26
-9.24
-9.245
-9.255
-9.275
-9.3
-9.325
-9.35
-9.37
-9.4
-9.42
-9.44
-9.455
-9.455
-9.44
-9.435
-9.42
-9.385
-9.33
-9.24
-9.11
-9.02
-8.96
-8.955
-8.96
-8.955
-8.93
-8.83
-8.665
-8.465
-8.295
-8.2
-8.22
-8.39
-8.725
-9.16
-9.61
-9.965
-10.205
-10.35
-10.43
-10.505
-10.565
-10.65
-10.69
-10.715
-10.71
-10.695
-10.67
-10.645
-10.64
-10.61
-10.595
-10.565
-10.525
-10.455
-10.375
-10.265
-10.135
-9.97
-9.835
-9.75
-9.695
-9.665
-9.65
-9.675
-9.65
-9.645
-9.66
-9.645
-9.625
-9.62
-9.57
-9.53
-9.505
-9.51
-9.55
-9.62
-9.645
-9.645
-9.645
-9.635
-9.615
-9.6
-9.58
-9.58
-9.605
-9.67
-9.76
-9.845
-9.87
-9.865
-9.845
-9.815
-9.81
-9.815
-9.81
-9.81
-9.81
-9.795
-9.79
-9.8
-9.85
-9.885
-9.92
-9.92
-9.86
-9.825
-9.75
-9.71
-9.72
-9.755
-9.805
-9.81
-9.79
-9.745
-9.695
-9.645
-9.585
-9.565
-9.57
-9.6
-9.625
-9.62
-9.59
-9.54
-9.485
-9.42
-9.375
-9.34
-9.315
-9.3
-9.315
-9.345
-9.39
-9.43
-9.42
-9.385
-9.325
-9.275
-9.23
-9.175
-9.16
-9.14
-9.115
-9.105
-9.095
-9.115
-9.115
-9.12
-9.12
-9.1
-9.07
-9.01
-8.975
-8.965
-8.96
-8.975
-8.995
-8.99
-8.985
-8.975
-8.96
-8.91
-8.89
-8.875
-8.9
-8.99
-9.03
-9.045
-9.025
-8.95
-8.86
-8.805
-8.785
-8.78
-8.805
-8.85
-8.85
-8.82
-8.81
-8.77
-8.77
-8.765
-8.755
-8.76
-8.79
-8.81
-8.83
-8.78
-8.705
-8.675
-8.68
-8.695
-8.74
-8.765
-8.775
-8.74
-8.7
-8.62
-8.585
-8.55
-8.555
-8.545
-8.545
-8.495
-8.435
-8.405
-8.385
-8.41
-8.43
-8.455
-8.445
-8.4
-8.315
-8.19
-8.09
-8.03
-8.03
-8.095
-8.17
-8.22
-8.24
-8.25
-8.23
-8.185
-8.13
-8.055
-8.015
-7.995
-8.045
-8.11
-8.15
-8.16
-8.13
-8.075
-8.03
-7.97
-7.96
-7.96
-7.97
-7.995
-8.07
-8.12
-8.15
-8.11
-8.095
-8.1
-8.09
-8.055
-7.995
-7.975
-7.925
-7.92
-7.955
-8.035
-8.115
-8.185
-8.185
-8.165
-8.12
-8.055
-7.98
-7.94
-7.94
-7.98
-8.05
-8.1
-8.14
-8.17
-8.16
-8.145
-8.115
-8.08
-8.045
-8.03
-8.01
-7.96
-7.87
-7.735
-7.585
-7.44
-7.325
-7.285
-7.3
-7.355
-7.37
-7.35
-7.25
-7.1
-6.97
-6.915
-6.975
-7.155
-7.475
-7.87
-8.25
-8.535
-8.735
-8.865
-8.975
-9.05
-9.11
-9.15
-9.16
-9.16
-9.145
-9.135
-9.18
-9.235
-9.24
-9.245
-9.175
-9.07
-8.975
-8.86
-8.76
-8.635
-8.475
-8.315
-8.18
-8.115
-8.095
-8.095
-8.1
-8.09
-8.06
-8.025
-8.015
-7.975
-7.985
-8.005
-8.005
-8.015
-7.99
-7.995
-7.995
-8.03
-8.065
-8.105
-8.07
-8.03
-7.965
-7.95
-7.97
-8.005
-8.085
-8.135
-8.17
-8.15
-8.115
-8.08
-8.05
-8.05
-8.065
-8.065
-8.07
-8.07
-8.09
-8.085
-8.08
-8.055
-8.045
-8.04
-8.07
-8.115
-8.17
-8.205
-8.24
-8.23
-8.17
-8.09
-8.045
-8.005
-8.02
-8.05
-8.115
-8.16
-8.205
-8.23
-8.275
-8.3
-8.285
-8.245
-8.185
-8.125
-8.085
-8.065
-8.065
-8.06
-8.1
-8.135
-8.18
-8.195
-8.19
-8.16
-8.175
-8.2
-8.26
-8.315
-8.365
-8.395
-8.395
-8.365
-8.335
-8.285
-8.265
-8.28
-8.325
-8.33
-8.35
-8.345
-8.305
-8.275
-8.265
-8.32
-8.4
-8.445
-8.445
-8.415
-8.365
-8.325
-8.34
-8.375
-8.445
-8.525
-8.58
-8.62
-8.6
-8.57
-8.515
-8.46
-8.42
-8.41
-8.435
-8.5
-8.585
-8.665
-8.69
-8.69
-8.66
-8.65
-8.615
-8.59
-8.545
-8.53
-8.545
-8.55
-8.575
-8.62
-8.67
-8.675
-8.62
-8.58
-8.565
-8.58
-8.6
-8.64
-8.725
-8.82
-8.885
-8.88
-8.89
-8.905
-8.95
-8.985
-8.99
-8.96
-8.89
-8.81
-8.755
-8.71
-8.665
-8.655
-8.675
-8.73
-8.8
-8.835
-8.855
-8.855
-8.795
-8.715
-8.63
-8.555
-8.485
-8.45
-8.455
-8.53
-8.645
-8.745
-8.795
-8.795
-8.77
-8.725
-8.715
-8.72
-8.74
-8.78
-8.78
-8.755
-8.705
-8.63
-8.56
-8.525
-8.495
-8.48
-8.495
-8.535
-8.57
-8.58
-8.55
-8.53
-8.515
-8.51
-8.495
-8.46
-8.43
-8.42
-8.47
-8.5
-8.54
-8.615
-8.72
-8.875
-9.035
-9.115
-9.135
-9.115
-9.09
-9.03
-8.95
-8.905
-8.885
-8.92
-8.955
-9.045
-9.13
-9.23
-9.295
-9.32
-9.285
-9.21
-9.1
-8.965
-8.85
-8.755
-8.69
-8.61
-8.515
-8.45
-8.41
-8.44
-8.49
-8.525
-8.51
-8.435
-8.27
-8.11
-8.045
-8.17
-8.51
-9.0
-9.52
-9.935
-10.18
-10.235
-10.18
-10.075
-10.055
-10.17
-10.385
-10.595
-10.715
-10.715
-10.59
-10.42
-10.27
-10.2
-10.21
-10.24
-10.215
-10.13
-9.99
-9.845
-9.77
-9.715
-9.63
-9.48
-9.335
-9.195
-9.065
-8.96
-8.92
-8.995
-9.165
-9.37
-9.48
-9.425
-9.22
-9.01
-8.845
-8.8
-8.89
-9.07
-9.25
-9.35
-9.34
-9.255
-9.135
-9.02
-8.975
-8.955
-8.96
-8.99
-9.065
-9.135
-9.17
-9.18
-9.205
-9.22
-9.27
-9.31
-9.315
-9.295
-9.27
-9.245
-9.24
-9.245
-9.285
-9.355
-9.425
-9.46
-9.43
-9.34
-9.215
-9.155
-9.15
-9.225
-9.325
-9.42
-9.46
-9.435
-9.355
-9.24
-9.21
-9.34
-9.55
-9.73
-9.78
-9.675
-9.5
-9.29
-9.07
-8.97
-9.015
-9.13
-9.235
-9.29
-9.31
-9.34
-9.37
-9.365
-9.31
-9.18
-9.03
-8.95
-8.965
-9.075
-9.14
-9.125
-9.11
-9.1
-9.14
-9.185
-9.17
-9.115
-9.05
-9.085
-9.215
-9.38
-9.44
-9.425
-9.34
-9.215
-9.08
-8.975
-8.985
-9.05
-9.12
-9.16
-9.225
-9.265
-9.305
-9.29
-9.21
-9.1
-8.97
-8.86
-8.775
-8.785
-8.84
-9.04
-9.27
-9.43
-9.42
-9.26
-9.11
-9.04
-9.105
-9.22
-9.295
-9.235
-9.14
-9.045
-8.995
-8.98
-9.06
-9.115
-9.16
-9.15
-9.135
-9.06
-8.995
-8.98
-8.97
-9.05
-9.16
-9.23
-9.21
-9.085
-8.955
-8.94
-9.02
-9.115
-9.19
-9.1
-8.965
-8.87
-8.875
-9.01
-9.22
-9.32
-9.305
-9.19
-9.035
-8.895
-8.835
-8.9
-9.05
-9.22
-9.32
-9.365
-9.36
-9.325
-9.295
-9.3
-9.35
-9.4
-9.425
-9.44
-9.47
-9.565
-9.66
-9.74
-9.74
-9.685
-9.595
-9.565
-9.595
-9.705
-9.825
-9.875
-9.845
-9.855
-9.83
-9.735
-9.645
-9.61
-9.68
-9.835
-10.0
-10.08
-10.01
-9.895
-9.725
-9.58
-9.46
-9.415
-9.455
-9.565
-9.68
-9.685
-9.6
-9.455
-9.28
-9.135
-9.035
-9.015
-9.045
-9.12
-9.225
-9.32
-9.385
-9.32
-9.18
-9.0
-8.85
-8.73
-8.68
-8.67
-8.68
-8.725
-8.765
-8.73
-8.685
-8.62
-8.555
-8.53
-8.65
-8.95
-9.37
-9.82
-10.175
-10.345
-10.38
-10.395
-10.45
-10.54
-10.615
-10.685
-10.75
-10.775
-10.78
-10.765
-10.77
-10.8
-10.825
-10.76
-10.63
-10.45
-10.25
-10.085
-9.98
-9.93
-9.9
-9.915
-9.89
-9.895
-9.9
-9.85
-9.825
-9.79
-9.8
-9.815
-9.82
-9.8
-9.8
-9.81
-9.85
-9.895
-9.925
-9.93
-9.89
-9.845
-9.795
-9.755
-9.735
-9.745
-9.735
-9.7
-9.645
-9.59
-9.53
-9.53
-9.585
-9.69
-9.765
-9.78
-9.755
-9.685
-9.62
-9.63
-9.685
-9.725
-9.74
-9.715
-9.69
-9.665
-9.615
-9.595
-9.625
-9.72
-9.855
-9.94
-9.93
-9.875
-9.8
-9.75
-9.74
-9.76
-9.82
-9.88
-9.9
-9.9
-9.84
-9.775
-9.755
-9.745
-9.76
-9.75
-9.74
-9.73
-9.705
-9.665
-9.615
-9.565
-9.58
-9.675
-9.795
-9.89
-9.92
-9.9
-9.825
-9.775
-9.74
-9.755
-9.765
-9.765
-9.73
-9.7
-9.68
-9.705
-9.79
-9.845
-9.91
-9.965
-9.99
-9.92
-9.84
-9.74
-9.695
-9.74
-9.79
-9.875
-9.95
-9.985
-9.96
-9.935
-9.875
-9.815
-9.79
-9.775
-9.775
-9.785
-9.775
-9.77
-9.775
-9.785
-9.72
-9.66
-9.64
-9.685
-9.745
-9.775
-9.75
-9.685
-9.635
-9.59
-9.565
-9.565
-9.58
-9.61
-9.61
-9.61
-9.635
-9.68
-9.69
-9.65
-9.62
-9.64
-9.675
-9.73
-9.77
-9.805
-9.81
-9.82
-9.815
-9.8
-9.755
-9.745
-9.705
-9.675
-9.665
-9.675
-9.675
-9.675
-9.64
-9.615
-9.59
-9.605
-9.595
-9.59
-9.56
-9.55
-9.56
-9.555
-9.505
-9.47
-9.415
-9.425
-9.475
-9.585
-9.7
-9.78
-9.765
-9.685
-9.57
-9.49
-9.48
-9.55
-9.615
-9.675
-9.69
-9.695
-9.655
-9.63
-9.585
-9.56
-9.575
-9.615
-9.695
-9.76
-9.8
-9.78
-9.705
-9.64
-9.615
-9.66
-9.72
-9.775
-9.83
-9.84
-9.82
-9.785
-9.77
-9.765
-9.755
-9.73
-9.69
-9.65
-9.58
-9.56
-9.61
-9.725
-9.86
-9.915
-9.925
-9.895
-9.82
-9.71
-9.56
-9.4
-9.25
-9.11
-9.01
-8.95
-8.9
-8.835
-8.785
-8.775
-8.725
-8.68
-8.675
-8.685
-8.805
-9.075
-9.445
-9.815
-10.135
-10.375
-10.515
-10.59
-10.655
-10.705
-10.75
-10.795
-10.825
-10.86
-10.855
-10.855
-10.87
-10.865
-10.86
-10.825
-10.745
-10.665
-10.57
-10.48
-10.36
-10.24
-10.1
-9.99
-9.93
-9.9
-9.86
-9.785
-9.755
-9.755
-9.8
-9.84
-9.85
-9.85
-9.83
-9.795
-9.765
-9.74
-9.715
-9.71
-9.705
-9.695
-9.695
-9.695
-9.7
-9.7
-9.68
-9.67
-9.675
-9.7
-9.745
-9.81
-9.86
-9.9
-9.92
-9.915
-9.89
-9.86
-9.855
-9.87
-9.875
-9.885
-9.925
-9.945
-9.99
-10.005
-10.03
-10.015
-9.99
-9.965
-9.93
-9.905
-9.92
-9.925
-9.92
-9.915
-9.93
-9.935
-9.915
-9.9
-9.845
-9.795
-9.755
-9.72
-9.685
-9.69
-9.715
-9.78
-9.8
-9.84
-9.82
-9.815
-9.82
-9.83
-9.805
-9.78
-9.75
-9.725
-9.7
-9.685
-9.69
-9.67
-9.685
-9.695
-9.69
-9.69
-9.68
-9.67
-9.68
-9.655
-9.655
-9.685
-9.665
-9.66
-9.675
-9.7
-9.71
-9.72
-9.695
-9.685
-9.655
-9.605
-9.61
-9.615
-9.645
-9.685
-9.73
-9.73
-9.72
-9.7
-9.685
-9.675
-9.67
-9.7
-9.7
-9.715
-9.755
-9.795
-9.83
-9.82
-9.805
-9.785
-9.745
-9.73
-9.7
-9.685
-9.695
-9.685
-9.7
-9.72
-9.745
-9.755
-9.76
-9.78
-9.76
-9.73
-9.71
-9.7
-9.69
-9.685
-9.7
-9.68
-9.69
-9.705
-9.695
-9.695
-9.69
-9.675
-9.675
-9.685
-9.71
-9.705
-9.73
-9.755
-9.77
-9.75
-9.72
-9.665
-9.6
-9.555
-9.54
-9.55
-9.585
-9.615
-9.61
-9.59
-9.555
-9.535
-9.5
-9.535
-9.585
-9.605
-9.62
-9.605
-9.59
-9.56
-9.515
-9.485
-9.455
-9.42
-9.425
-9.425
-9.475
-9.56
-9.65
-9.71
-9.735
-9.69
-9.675
-9.64
-9.655
-9.7
-9.76
-9.795
-9.805
-9.805
-9.79
-9.77
-9.745
-9.71
-9.69
-9.68
-9.665
-9.66
-9.69
-9.705
-9.73
-9.745
-9.755
-9.76
-9.745
-9.745
-9.73
-9.725
-9.715
-9.71
-9.72
-9.745
-9.76
-9.735
-9.675
-9.56
-9.445
-9.295
-9.165
-9.095
-9.065
-9.06
-9.035
-8.94
-8.81
-8.64
-8.51
-8.485
-8.595
-8.865
-9.285
-9.755
-10.16
-10.425
-10.585
-10.67
-10.735
-10.755
-10.76
-10.755
-10.755
-10.75
-10.755
-10.76
-10.77
-10.77
-10.73
-10.69
-10.63
-10.595
-10.54
-10.43
-10.315
-10.195
-10.085
-9.99
-9.885
-9.81
-9.78
-9.745
-9.75
-9.735
-9.7
-9.66
-9.615
-9.605
-9.59
-9.545
-9.505
-9.47
-9.49
-9.56
-9.68
-9.785
-9.855
-9.865
-9.835
-9.76
-9.68
-9.64
-9.645
-9.645
-9.695
-9.69
-9.71
-9.725
-9.71
-9.685
-9.675
-9.685
-9.69
-9.71
-9.72
-9.725
-9.745
-9.75
-9.755
-9.76
-9.77
-9.77
-9.77
-9.755
-9.76
-9.76
-9.77
-9.795
-9.815
-9.815
-9.815
-9.805
-9.785
-9.75
-9.745
-9.725
-9.7
-9.69
-9.675
-9.67
-9.655
-9.65
-9.655
-9.655
-9.645
-9.625
-9.615
-9.61
-9.585
-9.575
-9.57
-9.545
-9.545
-9.545
-9.56
-9.55
-9.56
-9.53
-9.52
-9.53
-9.535
-9.57
-9.59
-9.59
-9.575
-9.58
-9.59
-9.58
-9.56
-9.55
-9.54
-9.53
-9.53
-9.545
-9.55
-9.56
-9.53
-9.48
-9.435
-9.4
-9.39
-9.405
-9.45
-9.475
-9.47
-9.475
-9.51
-9.53
-9.565
-9.57
-9.59
-9.605
-9.63
-9.59
-9.575
-9.555
-9.525
-9.51
-9.485
-9.5
-9.5
-9.49
-9.485
-9.45
-9.42
-9.355
-9.305
-9.25
-9.24
-9.265
-9.325
-9.39
-9.395
-9.415
-9.405
-9.425
-9.43
-9.44
-9.465
-9.485
-9.46
-9.45
-9.42
-9.41
-9.45
-9.49
-9.56
-9.615
-9.625
-9.61
-9.575
-9.525
-9.515
-9.51
-9.535
-9.545
-9.55
-9.545
-9.545
-9.545
-9.54
-9.525
-9.51
-9.5
-9.51
-9.505
-9.515
-9.52
-9.49
-9.47
-9.475
-9.47
-9.485
-9.505
-9.5
-9.495
-9.465
-9.48
-9.47
-9.47
-9.46
-9.425
-9.395
-9.37
-9.32
-9.275
-9.26
-9.315
-9.42
-9.51
-9.575
-9.56
-9.525
-9.485
-9.45
-9.435
-9.45
-9.42
-9.375
-9.32
-9.225
-9.105
-8.975
-8.865
-8.83
-8.86
-8.89
-8.925
-8.87
-8.71
-8.5
-8.295
-8.13
-8.09
-8.185
-8.41
-8.75
-9.14
-9.475
-9.705
-9.86
-9.98
-10.115
-10.225
-10.31
-10.355
-10.365
-10.365
-10.34
-10.335
-10.36
-10.39
-10.42
-10.425
-10.39
-10.335
-10.22
-10.105
-9.955
-9.825
-9.7
-9.56
-9.43
-9.325
-9.29
-9.3
-9.36
-9.385
-9.41
-9.4
-9.37
-9.32
-9.27
-9.24
-9.225
-9.255
-9.32
-9.31
-9.325
-9.325
-9.35
-9.415
-9.45
-9.455
-9.445
-9.42
-9.395
-9.4
-9.41
-9.405
-9.38
-9.395
-9.415
-9.45
-9.48
-9.5
-9.52
-9.54
-9.555
-9.575
-9.58
-9.575
-9.55
-9.52
-9.475
-9.46
-9.44
-9.49
-9.53
-9.54
-9.53
-9.545
-9.56
-9.595
-9.61
-9.585
-9.53
-9.48
-9.45
-9.455
-9.465
-9.47
-9.435
-9.4
-9.355
-9.36
-9.365
-9.425
-9.46
-9.45
-9.405
-9.295
-9.21
-9.155
-9.215
-9.31
-9.37
-9.39
-9.38
-9.35
-9.325
-9.325
-9.33
-9.325
-9.31
-9.295
-9.3
-9.295
-9.31
-9.31
-9.36
-9.36
-9.395
-9.405
-9.42
-9.435
-9.415
-9.37
-9.385
-9.405
-9.45
-9.465
-9.455
-9.43
-9.375
-9.3
-9.265
-9.235
-9.23
-9.255
-9.265
-9.28
-9.265
-9.235
-9.18
-9.13
-9.11
-9.1
-9.105
-9.13
-9.12
-9.135
-9.115
-9.095
-9.055
-9.015
-9.0
-9.01
-9.055
-9.07
-9.07
-9.045
-9.055
-9.075
-9.095
-9.08
-9.07
-9.035
-9.015
-9.05
-9.07
-9.075
-9.07
-9.055
-9.05
-9.05
-9.115
-9.14
-9.16
-9.15
-9.125
-9.1
-9.075
-9.08
-9.09
-9.1
-9.075
-9.08
-9.075
-9.075
-9.085
-9.09
-9.11
-9.135
-9.165
-9.14
-9.06
-8.965
-8.91
-8.925
-8.98
-9.015
-9.015
-8.955
-8.91
-8.85
-8.805
-8.81
-8.83
-8.875
-8.86
-8.855
-8.86
-8.885
-8.93
-8.95
-9.0
-9.055
-9.1
-9.115
-9.06
-8.985
-8.93
-8.92
-8.92
-8.95
-8.995
-9.03
-9.065
-9.055
-9.025
-9.07
-9.12
-9.17
-9.21
-9.24
-9.285
-9.295
-9.27
-9.27
-9.255
-9.245
-9.235
-9.24
-9.255
-9.28
-9.33
-9.375
-9.37
-9.355
-9.3
-9.235
-9.2
-9.22
-9.28
-9.36
-9.41
-9.46
-9.45
-9.44
-9.41
-9.415
-9.43
-9.4
-9.38
-9.32
-9.245
-9.14
-9.05
-8.995
-9.0
-9.02
-9.04
-9.005
-8.905
-8.71
-8.475
-8.29
-8.25
-8.395
-8.715
-9.15
-9.555
-9.87
-10.035
-10.105
-10.12
-10.12
-10.17
-10.215
-10.27
-10.32
-10.34
-10.31
-10.33
-10.315
-10.315
-10.28
-10.22
-10.14
-10.035
-9.905
-9.8
-9.71
-9.625
-9.545
-9.445
-9.375
-9.33
-9.32
-9.335
-9.335
-9.31
-9.305
-9.29
-9.3
-9.29
-9.265
-9.225
-9.225
-9.255
-9.29
-9.34
-9.335
-9.31
-9.25
-9.215
-9.21
-9.225
-9.285
-9.31
-9.355
-9.365
-9.365
-9.34
-9.33
-9.34
-9.36
-9.375
-9.39
-9.4
-9.46
-9.5
-9.525
-9.54
-9.53
-9.5
-9.415
-9.365
-9.355
-9.415
-9.455
-9.475
-9.45
-9.43
-9.435
-9.475
-9.515
-9.55
-9.55
-9.525
-9.5
-9.445
-9.4
-9.39
-9.38
-9.38
-9.41
-9.425
-9.43
-9.41
-9.38
-9.365
-9.335
-9.3
-9.295
-9.28
-9.29
-9.315
-9.315
-9.31
-9.3
-9.27
-9.225
-9.21
-9.21
-9.26
-9.27
-9.27
-9.28
-9.275
-9.255
-9.23
-9.235
-9.28
-9.3
-9.315
-9.32
-9.29
-9.27
-9.255
-9.25
-9.26
-9.26
-9.235
-9.22
-9.21
-9.225
-9.255
-9.27
-9.295
-9.305
-9.305
-9.285
-9.255
-9.195
-9.185
-9.19
-9.24
-9.29
-9.305
-9.275
-9.27
-9.275
-9.275
-9.275
-9.27
-9.28
-9.265
-9.265
-9.27
-9.275
-9.29
-9.305
-9.3
-9.3
-9.3
-9.29
-9.295
-9.3
-9.325
-9.32
-9.3
-9.29
-9.275
-9.255
-9.25
-9.285
-9.325
-9.34
-9.355
-9.33
-9.315
-9.305
-9.31
-9.31
-9.295
-9.275
-9.23
-9.2
-9.175
-9.16
-9.165
-9.175
-9.18
-9.18
-9.175
-9.135
-9.12
-9.115
-9.11
-9.115
-9.105
-9.105
-9.135
-9.18
-9.19
-9.22
-9.215
-9.225
-9.225
-9.2
-9.21
-9.215
-9.2
-9.205
-9.215
-9.235
-9.245
-9.255
-9.275
-9.3
-9.305
-9.3
-9.295
-9.3
-9.305
-9.36
-9.38
-9.41
-9.445
-9.435
-9.41
-9.395
-9.36
-9.345
-9.335
-9.33
-9.32
-9.34
-9.36
-9.365
-9.35
-9.33
-9.345
-9.36
-9.39
-9.42
-9.41
-9.385
-9.375
-9.365
-9.39
-9.45
-9.475
-9.5
-9.465
-9.395
-9.32
-9.22
-9.15
-9.115
-9.05
-9.04
-9.08
-9.075
-9.045
-8.915
-8.715
-8.495
-8.3
-8.23
-8.335
-8.635
-9.02
-9.42
-9.71
-9.91
-9.995
-10.05
-10.095
-10.17
-10.28
-10.355
-10.415
-10.43
-10.395
-10.36
-10.335
-10.34
-10.35
-10.345
-10.335
-10.295
-10.25
-10.145
-9.995
-9.81
-9.62
-9.5
-9.405
-9.36
-9.36
-9.365
-9.355
-9.325
-9.3
-9.29
-9.28
-9.275
-9.28
-9.3
-9.325
-9.35
-9.325
-9.315
-9.31
-9.31
-9.34
-9.325
-9.31
-9.305
-9.28
-9.28
-9.31
-9.36
-9.395
-9.405
-9.42
-9.405
-9.375
-9.375
-9.365
-9.355
-9.35
-9.38
-9.43
-9.495
-9.54
-9.545
-9.54
-9.505
-9.45
-9.425
-9.385
-9.4
-9.425
-9.495
-9.545
-9.555
-9.545
-9.515
-9.5
-9.46
-9.485
-9.49
-9.505
-9.47
-9.435
-9.395
-9.375
-9.4
-9.415
-9.44
-9.415
-9.385
-9.355
-9.33
-9.295
-9.265
-9.265
-9.3
-9.34
-9.35
-9.335
-9.325
-9.345
-9.355
-9.36
-9.345
-9.31
-9.285
-9.275
-9.27
-9.29
-9.295
-9.28
-9.31
-9.33
-9.395
-9.43
-9.425
-9.4
-9.355
-9.32
-9.3
-9.3
-9.295
-9.31
-9.325
-9.355
-9.375
-9.375
-9.34
-9.315
-9.29
-9.275
-9.31
-9.35
-9.37
-9.39
-9.365
-9.31
-9.305
-9.34
-9.405
-9.415
-9.4
-9.355
-9.31
-9.34
-9.37
-9.39
-9.37
-9.315
-9.275
-9.255
-9.28
-9.36
-9.445
-9.46
-9.44
-9.365
-9.335
-9.365
-9.405
-9.405
-9.39
-9.36
-9.34
-9.34
-9.365
-9.375
-9.33
-9.23
-9.155
-9.16
-9.25
-9.33
-9.355
-9.305
-9.22
-9.105
-9.07
-9.075
-9.1
-9.18
-9.26
-9.32
-9.335
-9.295
-9.255
-9.215
-9.205
-9.2
-9.24
-9.255
-9.21
-9.175
-9.15
-9.19
-9.28
-9.37
-9.44
-9.43
-9.36
-9.27
-9.215
-9.24
-9.285
-9.29
-9.3
-9.37
-9.46
-9.52
-9.495
-9.465
-9.46
-9.48
-9.505
-9.495
-9.415
-9.35
-9.34
-9.395
-9.49
-9.62
-9.67
-9.625
-9.48
-9.35
-9.29
-9.31
-9.385
-9.505
-9.645
-9.695
-9.685
-9.66
-9.64
-9.645
-9.615
-9.54
-9.45
-9.36
-9.245
-9.2
-9.31
-9.525
-9.675
-9.55
-9.22
-8.795
-8.48
-8.385
-8.48
-8.63
-8.72
-8.84
-9.01
-9.19
-9.36
-9.49
-9.64
-9.87
-10.135
-10.305
-10.34
-10.345
-10.36
-10.285
-10.095
-9.905
-9.9
-10.125
-10.38
-10.595
-10.7
-10.59
-10.275
-9.86
-9.5
-9.335
-9.45
-9.675
-9.8
-9.73
-9.555
-9.425
-9.425
-9.47
-9.45
-9.31
-9.19
-9.14
-9.13
-9.11
-9.2
-9.32
-9.415
-9.52
-9.555
-9.52
-9.395
-9.21
-9.045
-8.92
-8.905
-8.985
-9.185
-9.36
-9.44
-9.43
-9.37
-9.345
-9.36
-9.4
-9.44
-9.415
-9.355
-9.26
-9.205
-9.175
-9.205
-9.26
-9.285
-9.37
-9.55
-9.625
-9.595
-9.465
-9.33
-9.265
-9.3
-9.385
-9.42
-9.395
-9.325
-9.28
-9.255
-9.24
-9.255
-9.295
-9.31
-9.29
-9.245
-9.215
-9.265
-9.385
-9.535
-9.535
-9.405
-9.195
-9.02
-8.935
-8.95
-9.045
-9.185
-9.325
-9.395
-9.35
-9.27
-9.165
-9.075
-9.02
-9.015
-9.07
-9.12
-9.15
-9.165
-9.17
-9.2
-9.175
-9.11
-9.025
-9.0
-9.025
-9.145
-9.32
-9.37
-9.305
-9.17
-9.065
-9.005
-8.99
-9.0
-9.03
-9.065
-9.055
-9.075
-9.11
-9.145
-9.175
-9.21
-9.235
-9.17
-9.115
-9.035
-9.055
-9.15
-9.225
-9.22
-9.15
-9.09
-9.035
-9.045
-9.075
-9.105
-9.125
-9.145
-9.14
-9.13
-9.12
-9.11
-9.105
-9.125
-9.14
-9.13
-9.105
-9.075
-9.09
-9.125
-9.105
-9.095
-9.075
-9.05
-9.025
-9.015
-9.055
-9.125
-9.175
-9.15
-9.095
-9.015
-8.975
-8.95
-8.975
-8.99
-8.99
-9.025
-9.04
-9.06
-9.045
-9.025
-9.0
-9.01
-8.985
-8.97
-8.965
-8.99
-9.005
-9.035
-9.08
-9.125
-9.165
-9.18
-9.21
-9.23
-9.265
-9.315
-9.335
-9.355
-9.34
-9.365
-9.395
-9.43
-9.51
-9.535
-9.54
-9.53
-9.535
-9.53
-9.53
-9.55
-9.585
-9.63
-9.665
-9.685
-9.685
-9.675
-9.655
-9.615
-9.565
-9.56
-9.585
-9.61
-9.625
-9.67
-9.695
-9.705
-9.715
-9.69
-9.645
-9.585
-9.56
-9.63
-9.735
-9.84
-9.885
-9.865
-9.805
-9.74
-9.645
-9.525
-9.43
-9.37
-9.315
-9.33
-9.35
-9.35
-9.27
-9.105
-8.855
-8.65
-8.52
-8.535
-8.74
-9.09
-9.51
-9.895
-10.15
-10.27
-10.325
-10.345
-10.355
-10.405
-10.435
-10.435
-10.445
-10.475
-10.525
-10.555
-10.58
-10.565
-10.555
-10.54
-10.485
-10.41
-10.27
-10.115
-9.925
-9.77
-9.64
-9.58
-9.585
-9.605
-9.62
-9.64
-9.68
-9.69
-9.705
-9.69
-9.655
-9.63
-9.615
-9.61
-9.615
-9.645
-9.655
-9.635
-9.6
-9.58
-9.585
-9.625
-9.665
-9.66
-9.655
-9.655
-9.675
-9.7
-9.725
-9.735
-9.725
-9.735
-9.74
-9.75
-9.76
-9.78
-9.785
-9.79
-9.78
-9.77
-9.77
-9.765
-9.77
-9.775
-9.775
-9.76
-9.735
-9.715
-9.695
-9.715
-9.725
-9.755
-9.77
-9.765
-9.73
-9.71
-9.7
-9.675
-9.645
-9.615
-9.63
-9.665
-9.705
-9.75
-9.755
-9.7
-9.63
-9.58
-9.52
-9.48
-9.47
-9.495
-9.525
-9.555
-9.56
-9.555
-9.56
-9.545
-9.53
-9.515
-9.505
-9.485
-9.49
-9.52
-9.52
-9.52
-9.505
-9.47
-9.445
-9.42
-9.43
-9.48
-9.54
-9.585
-9.605
-9.585
-9.55
-9.57
-9.605
-9.61
-9.61
-9.595
-9.57
-9.57
-9.56
-9.53
-9.525
-9.525
-9.53
-9.565
-9.585
-9.585
-9.59
-9.6
-9.575
-9.58
-9.535
-9.495
-9.495
-9.51
-9.56
-9.62
-9.655
-9.68
-9.655
-9.63
-9.61
-9.575
-9.565
-9.565
-9.57
-9.59
-9.605
-9.585
-9.54
-9.51
-9.51
-9.535
-9.585
-9.595
-9.58
-9.555
-9.52
-9.495
-9.49
-9.48
-9.425
-9.38
-9.36
-9.36
-9.395
-9.425
-9.44
-9.41
-9.42
-9.44
-9.435
-9.415
-9.37
-9.315
-9.275
-9.25
-9.25
-9.295
-9.335
-9.36
-9.385
-9.385
-9.365
-9.385
-9.385
-9.39
-9.42
-9.42
-9.355
-9.32
-9.3
-9.29
-9.285
-9.36
-9.435
-9.545
-9.58
-9.585
-9.525
-9.47
-9.45
-9.465
-9.5
-9.51
-9.51
-9.495
-9.5
-9.505
-9.525
-9.535
-9.515
-9.48
-9.445
-9.435
-9.44
-9.495
-9.57
-9.63
-9.675
-9.675
-9.62
-9.555
-9.495
-9.455
-9.435
-9.45
-9.505
-9.575
-9.65
-9.67
-9.645
-9.55
-9.395
-9.225
-9.075
-8.98
-8.97
-9.02
-9.06
-9.025
-8.905
-8.715
-8.51
-8.38
-8.36
-8.5
-8.79
-9.185
-9.62
-9.965
-10.175
-10.26
-10.265
-10.3
-10.345
-10.42
-10.46
-10.465
-10.465
-10.465
-10.48
-10.485
-10.545
-10.56
-10.545
-10.49
-10.405
-10.32
-10.225
-10.1
-9.945
-9.83
-9.725
-9.63
-9.565
-9.54
-9.535
-9.53
-9.53
-9.53
-9.51
-9.485
-9.465
-9.45
-9.455
-9.455
-9.48
-9.455
-9.425
-9.445
-9.425
-9.43
-9.42
-9.42
-9.435
-9.455
-9.48
-9.485
-9.475
-9.495
-9.49
-9.515
-9.495
-9.485
-9.505
-9.52
-9.54
-9.56
-9.605
-9.665
-9.695
-9.72
-9.71
-9.675
-9.65
-9.645
-9.63
-9.63
-9.645
-9.635
-9.65
-9.665
-9.66
-9.665
-9.665
-9.625
-9.62
-9.605
-9.615
-9.635
-9.645
-9.63
-9.58
-9.56
-9.535
-9.505
-9.485
-9.455
-9.465
-9.475
-9.48
-9.47
-9.46
-9.45
-9.425
-9.41
-9.4
-9.415
-9.41
-9.38
-9.375
-9.4
-9.425
-9.45
-9.46
-9.45
-9.435
-9.435
-9.42
-9.41
-9.42
-9.41
-9.375
-9.37
-9.37
-9.38
-9.39
-9.4
-9.4
-9.395
-9.39
-9.385
-9.37
-9.355
-9.37
-9.36
-9.36
-9.375
-9.365
-9.345
-9.36
-9.37
-9.375
-9.38
-9.395
-9.41
-9.435
-9.445
-9.465
-9.45
-9.425
-9.44
-9.4
-9.395
-9.415
-9.42
-9.43
-9.45
-9.465
-9.47
-9.47
-9.485
-9.48
-9.48
-9.46
-9.46
-9.475
-9.485
-9.485
-9.47
-9.475
-9.48
-9.485
-9.495
-9.495
-9.5
-9.515
-9.5
-9.48
-9.475
-9.425
-9.405
-9.36
-9.345
-9.335
-9.335
-9.37
-9.395
-9.4
-9.43
-9.41
-9.375
-9.345
-9.315
-9.31
-9.325
-9.355
-9.395
-9.425
-9.455
-9.47
-9.46
-9.435
-9.41
-9.36
-9.335
-9.32
-9.345
-9.365
-9.405
-9.445
-9.465
-9.48
-9.46
-9.455
-9.45
-9.46
-9.45
-9.465
-9.51
-9.525
-9.53
-9.54
-9.525
-9.53
-9.5
-9.49
-9.48
-9.49
-9.48
-9.49
-9.47
-9.46
-9.465
-9.48
-9.52
-9.54
-9.58
-9.6
-9.585
-9.575
-9.56
-9.565
-9.57
-9.575
-9.595
-9.605
-9.61
-9.585
-9.56
-9.49
-9.4
-9.31
-9.235
-9.21
-9.2
-9.185
-9.125
-9.0
-8.78
-8.54
-8.36
-8.29
-8.405
-8.69
-9.075
-9.48
-9.805
-10.025
-10.13
-10.18
-10.23
-10.265
-10.33
-10.37
-10.4
-10.4
-10.375
-10.4
-10.41
-10.405
-10.39
-10.36
-10.295
-10.22
-10.125
-10.005
-9.86
-9.715
-9.605
-9.5
-9.45
-9.415
-9.43
-9.435
-9.435
-9.43
-9.425
-9.425
-9.395
-9.38
-9.37
-9.37
-9.4
-9.4
-9.43
-9.44
-9.44
-9.415
-9.425
-9.43
-9.445
-9.475
-9.485
-9.48
-9.495
-9.47
-9.455
-9.44
-9.415
-9.42
-9.445
-9.51
-9.54
-9.565
-9.545
-9.5
-9.45
-9.43
-9.44
-9.48
-9.485
-9.52
-9.53
-9.555
-9.565
-9.55
-9.52
-9.46
-9.43
-9.46
-9.505
-9.56
-9.585
-9.57
-9.515
-9.46
-9.45
-9.42
-9.415
-9.405
-9.38
-9.365
-9.375
-9.41
-9.45
-9.43
-9.41
-9.375
-9.335
-9.355
-9.36
-9.375
-9.41
-9.435
-9.44
-9.43
-9.395
-9.36
-9.335
-9.29
-9.28
-9.255
-9.225
-9.185
-9.185
-9.2
-9.23
-9.205
-9.155
-9.115
-9.06
-9.07
-9.135
-9.19
-9.255
-9.285
-9.275
-9.265
-9.265
-9.28
-9.3
-9.3
-9.285
-9.26
-9.22
-9.175
-9.2
-9.24
-9.3
-9.37
-9.395
-9.43
-9.455
-9.465
-9.465
-9.475
-9.495
-9.515
-9.535
-9.56
-9.55
-9.52
-9.48
-9.45
-9.435
-9.445
-9.475
-9.5
-9.53
-9.555
-9.565
-9.53
-9.445
-9.37
-9.3
-9.29
-9.325
-9.37
-9.405
-9.43
-9.42
-9.39
-9.32
-9.265
-9.195
-9.175
-9.185
-9.22
-9.27
-9.305
-9.345
-9.355
-9.345
-9.34
-9.335
-9.32
-9.295
-9.28
-9.25
-9.205
-9.14
-9.085
-9.03
-9.025
-9.06
-9.095
-9.12
-9.05
-8.875
-8.635
-8.38
-8.265
-8.32
-8.615
-9.065
-9.49
-9.82
-9.985
-10.025
-10.0
-9.985
-10.0
-10.03
-10.075
-10.09
-10.065
-10.03
-9.97
-9.925
-9.86
-9.805
-9.75
-9.7
-9.665
-9.6
-9.5
-9.37
-9.25
-9.15
-9.095
-9.075
-9.065
-9.03
-9.015
-8.995
-8.98
-8.955
-8.915
-8.9
-8.87
-8.865
-8.855
-8.845
-8.87
-8.935
-9.015
-9.085
-9.14
-9.14
-9.115
-9.065
-9.025
-9.0
-9.01
-9.04
-9.075
-9.095
-9.06
-9.065
-9.095
-9.13
-9.17
-9.215
-9.21
-9.22
-9.23
-9.23
-9.2
-9.18
-9.145
-9.125
-9.095
-9.07
-9.045
-9.07
-9.065
-9.075
-9.075
-9.055
-9.015
-8.96
-8.945
-8.93
-8.93
-8.93
-8.92
-8.915
-8.89
-8.855
-8.815
-8.77
-8.69
-8.625
-8.535
-8.46
-8.38
-8.305
-8.235
-8.17
-8.115
-8.06
-7.975
-7.88
-7.785
-7.695
-7.665
-7.63
-7.605
-7.565
-7.555
-7.545
-7.525
-7.505
-7.47
-7.435
-7.385
-7.345
-7.32
-7.3
-7.305
-7.295
-7.315
-7.36
-7.4
-7.43
-7.43
-7.385
-7.325
-7.275
-7.235
-7.245
-7.24
-7.225
-7.215
-7.215
-7.21
-7.185
-7.155
-7.11
-7.09
-7.055
-7.045
-7.045
-7.045
-7.06
-7.065
-7.05
-7.06
-7.045
-7.02
-6.995
-6.98
-6.95
-6.915
-6.905
-6.935
-6.915
-6.91
-6.915
-6.92
-6.92
-6.92
-6.905
-6.895
-6.895
-6.875
-6.86
-6.845
-6.835
-6.84
-6.86
-6.88
-6.89
-6.87
-6.855
-6.82
-6.82
-6.815
-6.83
-6.845
-6.875
-6.89
-6.89
-6.875
-6.875
-6.84
-6.835
-6.81
-6.785
-6.775
-6.79
-6.805
-6.83
-6.845
-6.835
-6.84
-6.845
-6.835
-6.815
-6.79
-6.775
-6.765
-6.745
-6.76
-6.765
-6.76
-6.78
-6.795
-6.81
-6.79
-6.8
-6.795
-6.76
-6.78
-6.77
-6.765
-6.8
-6.81
-6.83
-6.83
-6.8
-6.76
-6.72
-6.72
-6.725
-6.72
-6.71
-6.7
-6.685
-6.71
-6.715
-6.7
-6.695
-6.685
-6.675
-6.645
-6.62
-6.61
-6.615
-6.655
-6.695
-6.735
-6.755
-6.78
-6.77
-6.73
-6.71
-6.67
-6.68
-6.695
-6.685
-6.675
-6.695
-6.725
-6.755
-6.775
-6.805
-6.785
-6.775
-6.78
-6.805
-6.845
-6.86
-6.885
-6.915
-6.955
-6.99
-7.0
-7.005
-6.97
-6.935
-6.925
-6.955
-7.0
-7.045
-7.06
-7.04
-7.01
-6.99
-7.0
-7.015
-7.045
-7.05
-7.05
-7.04
-7.05
-7.05
-7.045
-7.075
-7.12
-7.145
-7.17
-7.15
-7.07
-6.975
-6.845
-6.725
-6.66
-6.685
-6.755
-6.82
-6.8
-6.755
-6.645
-6.51
-6.385
-6.295
-6.29
-6.44
-6.695
-7.015
-7.33
-7.565
-7.725
-7.825
-7.92
-8.01
-8.055
-8.125
-8.18
-8.215
-8.23
-8.225
-8.225
-8.23
-8.26
-8.32
-8.36
-8.38
-8.32
-8.235
-8.11
-7.99
-7.84
-7.735
-7.67
-7.6
-7.565
-7.56
-7.58
-7.575
-7.565
-7.575
-7.59
-7.6
-7.6
-7.595
-7.58
-7.585
-7.605
-7.62
-7.63
-7.63
-7.63
-7.655
-7.655
-7.67
-7.665
-7.66
-7.65
-7.665
-7.725
-7.78
-7.8
-7.805
-7.82
-7.81
-7.82
-7.805
-7.8
-7.775
-7.77
-7.765
-7.795
-7.825
-7.845
-7.85
-7.81
-7.785
-7.76
-7.765
-7.795
-7.83
-7.83
-7.865
-7.905
-7.93
-7.905
-7.89
-7.88
-7.83
-7.82
-7.795
-7.755
-7.73
-7.725
-7.755
-7.81
-7.86
-7.905
-7.88
-7.845
-7.78
-7.725
-7.705
-7.7
-7.715
-7.735
-7.755
-7.77
-7.76
-7.755
-7.755
-7.73
-7.75
-7.795
-7.795
-7.805
-7.78
-7.76
-7.755
-7.78
-7.795
-7.825
-7.82
-7.805
-7.79
-7.775
-7.82
-7.855
-7.88
-7.9
-7.93
-7.91
-7.895
-7.905
-7.885
-7.865
-7.865
-7.85
-7.845
-7.825
-7.83
-7.855
-7.87
-7.93
-7.965
-8.005
-8.02
-8.02
-8.01
-7.985
-7.965
-7.95
-7.95
-7.95
-7.955
-7.995
-8.005
-7.99
-7.955
-7.98
-8.0
-8.055
-8.12
-8.135
-8.095
-8.05
-8.035
-8.045
-8.06
-8.09
-8.09
-8.08
-8.07
-8.035
-8.025
-8.02
-8.025
-8.03
-8.035
-8.045
-8.055
-8.085
-8.105
-8.09
-8.095
-8.05
-8.015
-7.985
-7.955
-7.96
-7.945
-7.95
-7.915
-7.895
-7.9
-7.91
-7.945
-7.96
-7.98
-8.0
-8.01
-8.035
-8.075
-8.085
-8.075
-8.035
-8.02
-8.0
-7.99
-7.97
-7.965
-7.955
-7.96
-7.97
-7.985
-8.005
-8.02
-8.045
-8.055
-8.075
-8.075
-8.08
-8.09
-8.085
-8.07
-8.06
-8.03
-8.07
-8.08
-8.11
-8.14
-8.135
-8.125
-8.105
-8.08
-8.065
-8.04
-8.055
-8.075
-8.105
-8.14
-8.16
-8.19
-8.18
-8.16
-8.105
-8.065
-8.085
-8.155
-8.2
-8.215
-8.18
-8.135
-8.075
-7.98
-7.885
-7.82
-7.79
-7.8
-7.825
-7.795
-7.68
-7.52
-7.325
-7.195
-7.225
-7.415
-7.74
-8.135
-8.515
-8.81
-9.005
-9.1
-9.16
-9.195
-9.22
-9.24
-9.255
-9.27
-9.265
-9.29
-9.295
-9.305
-9.29
-9.255
-9.205
-9.15
-9.085
-9.01
-8.905
-8.77
-8.64
-8.485
-8.375
-8.285
-8.245
-8.215
-8.2
-8.175
-8.17
-8.175
-8.215
-8.245
-8.24
-8.235
-8.2
-8.15
-8.125
-8.09
-8.115
-8.11
-8.13
-8.135
-8.14
-8.14
-8.105
-8.115
-8.15
-8.195
-8.23
-8.245
-8.24
-8.22
-8.205
-8.21
-8.21
-8.225
-8.22
-8.22
-8.22
-8.215
-8.23
-8.225
-8.215
-8.215
-8.255
-8.3
-8.32
-8.36
-8.355
-8.32
-8.295
-8.26
-8.24
-8.245
-8.26
-8.26
-8.25
-8.255
-8.215
-8.19
-8.19
-8.195
-8.195
-8.185
-8.155
-8.145
-8.13
-8.115
-8.135
-8.17
-8.205
-8.22
-8.205
-8.175
-8.12
-8.075
-8.075
-8.09
-8.105
-8.11
-8.11
-8.1
-8.105
-8.125
-8.15
-8.16
-8.155
-8.145
-8.125
-8.12
-8.095
-8.07
-8.075
-8.095
-8.13
-8.175
-8.215
-8.21
-8.185
-8.16
-8.15
-8.155
-8.15
-8.15
-8.155
-8.16
-8.155
-8.18
-8.195
-8.22
-8.225
-8.215
-8.2
-8.18
-8.195
-8.225
-8.245
-8.24
-8.26
-8.27
-8.29
-8.265
-8.23
-8.195
-8.16
-8.16
-8.19
-8.24
-8.25
-8.245
-8.245
-8.255
-8.27
-8.275
-8.265
-8.25
-8.235
-8.19
-8.195
-8.19
-8.2
-8.21
-8.23
-8.245
-8.26
-8.27
-8.25
-8.195
-8.13
-8.11
-8.12
-8.175
-8.205
-8.225
-8.205
-8.175
-8.155
-8.145
-8.145
-8.14
-8.12
-8.08
-8.07
-8.06
-8.05
-8.08
-8.11
-8.14
-8.145
-8.155
-8.135
-8.125
-8.145
-8.175
-8.2
-8.21
-8.2
-8.18
-8.16
-8.17
-8.205
-8.21
-8.22
-8.21
-8.19
-8.19
-8.22
-8.245
-8.27
-8.265
-8.255
-8.28
-8.3
-8.32
-8.345
-8.35
-8.335
-8.295
-8.275
-8.28
-8.345
-8.39
-8.405
-8.41
-8.4
-8.385
-8.38
-8.375
-8.38
-8.37
-8.35
-8.315
-8.305
-8.305
-8.335
-8.4
-8.435
-8.415
-8.41
-8.35
-8.245
-8.115
-7.985
-7.895
-7.88
-7.95
-8.06
-8.115
-8.075
-7.925
-7.735
-7.56
-7.505
-7.535
-7.765
-8.175
-8.68
-9.125
-9.425
-9.54
-9.53
-9.505
-9.45
-9.41
-9.375
-9.37
-9.4
-9.42
-9.44
-9.42
-9.35
-9.285
-9.24
-9.265
-9.285
-9.285
-9.155
-9.005
-8.84
-8.675
-8.5
-8.375
-8.28
-8.26
-8.315
-8.41
-8.475
-8.475
-8.46
-8.415
-8.375
-8.36
-8.305
-8.25
-8.225
-8.265
-8.35
-8.44
-8.475
-8.49
-8.48
-8.455
-8.45
-8.4
-8.375
-8.41
-8.46
-8.515
-8.555
-8.52
-8.465
-8.435
-8.42
-8.45
-8.545
-8.605
-8.645
-8.66
-8.64
-8.595
-8.56
-8.48
-8.49
-8.545
-8.62
-8.67
-8.7
-8.69
-8.645
-8.55
-8.5
-8.51
-8.56
-8.62
-8.665
-8.695
-8.68
-8.655
-8.645
-8.66
-8.685
-8.665
-8.64
-8.575
-8.565
-8.615
-8.67
-8.67
-8.61
-8.53
-8.51
-8.56
-8.61
-8.67
-8.715
-8.72
-8.705
-8.66
-8.615
-8.62
-8.61
-8.63
-8.63
-8.66
-8.67
-8.685
-8.7
-8.69
-8.69
-8.675
-8.675
-8.725
-8.765
-8.8
-8.815
-8.79
-8.79
-8.795
-8.79
-8.78
-8.775
-8.725
-8.675
-8.655
-8.67
-8.69
-8.715
-8.77
-8.815
-8.83
-8.82
-8.815
-8.815
-8.83
-8.83
-8.82
-8.8
-8.785
-8.79
-8.78
-8.765
-8.775
-8.83
-8.87
-8.89
-8.895
-8.885
-8.885
-8.865
-8.845
-8.81
-8.8
-8.845
-8.87
-8.85
-8.83
-8.825
-8.835
-8.84
-8.84
-8.82
-8.785
-8.735
-8.69
-8.685
-8.705
-8.735
-8.73
-8.715
-8.69
-8.66
-8.64
-8.64
-8.615
-8.645
-8.685
-8.71
-8.735
-8.72
-8.7
-8.66
-8.665
-8.69
-8.695
-8.66
-8.665
-8.68
-8.71
-8.745
-8.75
-8.73
-8.665
-8.62
-8.615
-8.62
-8.64
-8.685
-8.735
-8.765
-8.78
-8.755
-8.735
-8.705
-8.7
-8.75
-8.825
-8.85
-8.845
-8.835
-8.8
-8.76
-8.745
-8.74
-8.735
-8.75
-8.785
-8.81
-8.835
-8.86
-8.865
-8.875
-8.845
-8.795
-8.76
-8.765
-8.79
-8.815
-8.84
-8.855
-8.85
-8.83
-8.815
-8.82
-8.865
-8.895
-8.875
-8.785
-8.69
-8.575
-8.465
-8.42
-8.43
-8.47
-8.53
-8.555
-8.52
-8.41
-8.19
-8.035
-7.935
-7.995
-8.215
-8.605
-9.01
-9.365
-9.565
-9.65
-9.66
-9.68
-9.67
-9.69
-9.71
-9.745
-9.78
-9.8
-9.78
-9.77
-9.73
-9.695
-9.67
-9.625
-9.62
-9.6
-9.535
-9.425
-9.3
-9.165
-9.025
-8.9
-8.79
-8.73
-8.69
-8.69
-8.685
-8.7
-8.71
-8.715
-8.705
-8.71
-8.68
-8.66
-8.635
-8.59
-8.59
-8.585
-8.59
-8.59
-8.6
-8.64
-8.67
-8.67
-8.67
-8.655
-8.66
-8.69
-8.715
-8.7
-8.695
-8.665
-8.665
-8.65
-8.65
-8.655
-8.67
-8.7
-8.715
-8.71
-8.74
-8.755
-8.755
-8.74
-8.745
-8.765
-8.8
-8.815
-8.83
-8.805
-8.775
-8.75
-8.745
-8.75
-8.775
-8.81
-8.805
-8.815
-8.775
-8.755
-8.725
-8.695
-8.695
-8.69
-8.7
-8.695
-8.675
-8.665
-8.66
-8.67
-8.65
-8.655
-8.63
-8.645
-8.67
-8.695
-8.68
-8.665
-8.635
-8.62
-8.625
-8.655
-8.685
-8.715
-8.745
-8.73
-8.715
-8.67
-8.66
-8.67
-8.7
-8.74
-8.76
-8.745
-8.735
-8.73
-8.71
-8.69
-8.69
-8.68
-8.715
-8.715
-8.71
-8.71
-8.72
-8.75
-8.8
-8.825
-8.82
-8.79
-8.775
-8.755
-8.73
-8.74
-8.76
-8.775
-8.785
-8.78
-8.78
-8.795
-8.82
-8.84
-8.82
-8.825
-8.82
-8.82
-8.81
-8.79
-8.795
-8.79
-8.795
-8.835
-8.85
-8.875
-8.865
-8.85
-8.82
-8.81
-8.805
-8.83
-8.85
-8.87
-8.895
-8.905
-8.875
-8.87
-8.87
-8.885
-8.915
-8.9
-8.895
-8.9
-8.88
-8.85
-8.84
-8.85
-8.86
-8.865
-8.845
-8.835
-8.8
-8.805
-8.795
-8.8
-8.82
-8.835
-8.825
-8.79
-8.775
-8.795
-8.81
-8.815
-8.82
-8.84
-8.875
-8.905
-8.945
-8.945
-8.93
-8.91
-8.895
-8.88
-8.87
-8.88
-8.91
-8.94
-8.945
-8.945
-8.955
-8.98
-9.0
-9.04
-9.09
-9.085
-9.08
-9.05
-9.03
-9.03
-9.025
-9.055
-9.1
-9.13
-9.155
-9.14
-9.095
-9.08
-9.065
-9.075
-9.08
-9.06
-9.035
-9.025
-9.045
-9.095
-9.165
-9.185
-9.17
-9.135
-9.11
-9.115
-9.1
-9.115
-9.165
-9.205
-9.22
-9.21
-9.155
-9.085
-8.98
-8.875
-8.82
-8.785
-8.82
-8.9
-8.925
-8.895
-8.805
-8.67
-8.5
-8.4
-8.43
-8.68
-9.135
-9.685
-10.17
-10.51
-10.66
-10.65
-10.595
-10.535
-10.485
-10.48
-10.46
-10.435
-10.395
-10.335
-10.335
-10.34
-10.365
-10.385
-10.385
-10.31
-10.2
-10.015
-9.835
-9.68
-9.58
-9.51
-9.45
-9.415
-9.425
-9.445
-9.485
-9.495
-9.485
-9.455
-9.425
-9.39
-9.34
-9.325
-9.295
-9.31
-9.32
-9.315
-9.315
-9.335
-9.36
-9.395
-9.405
-9.4
-9.385
-9.385
-9.385
-9.385
-9.395
-9.41
-9.445
-9.47
-9.475
-9.47
-9.455
-9.47
-9.445
-9.46
-9.465
-9.485
-9.51
-9.515
-9.515
-9.505
-9.475
-9.45
-9.415
-9.44
-9.55
-9.645
-9.65
-9.615
-9.585
-9.53
-9.51
-9.495
-9.515
-9.535
-9.54
-9.525
-9.49
-9.465
-9.435
-9.41
-9.405
-9.41
-9.425
-9.39
-9.385
-9.4
-9.38
-9.345
-9.345
-9.385
-9.405
-9.46
-9.465
-9.455
-9.425
-9.42
-9.425
-9.4
-9.4
-9.415
-9.43
-9.45
-9.46
-9.475
-9.475
-9.47
-9.465
-9.47
-9.465
-9.485
-9.47
-9.455
-9.445
-9.42
-9.41
-9.43
-9.45
-9.465
-9.51
-9.52
-9.51
-9.5
-9.475
-9.46
-9.47
-9.495
-9.51
-9.49
-9.485
-9.49
-9.535
-9.59
-9.62
-9.66
-9.675
-9.66
-9.65
-9.63
-9.62
-9.65
-9.695
-9.71
-9.73
-9.735
-9.74
-9.735
-9.72
-9.715
-9.71
-9.7
-9.695
-9.7
-9.715
-9.745
-9.775
-9.785
-9.76
-9.75
-9.79
-9.81
-9.84
-9.835
-9.815
-9.755
-9.7
-9.645
-9.66
-9.71
-9.76
-9.81
-9.805
-9.76
-9.695
-9.66
-9.655
-9.67
-9.685
-9.675
-9.665
-9.66
-9.675
-9.69
-9.7
-9.72
-9.735
-9.74
-9.73
-9.73
-9.72
-9.71
-9.735
-9.735
-9.73
-9.745
-9.77
-9.765
-9.745
-9.72
-9.715
-9.75
-9.77
-9.79
-9.81
-9.85
-9.91
-9.965
-9.995
-9.99
-9.955
-9.91
-9.88
-9.885
-9.875
-9.86
-9.825
-9.815
-9.85
-9.885
-9.94
-9.95
-9.93
-9.895
-9.875
-9.845
-9.84
-9.85
-9.86
-9.9
-9.945
-9.98
-10.03
-10.03
-9.97
-9.875
-9.71
-9.56
-9.43
-9.295
-9.225
-9.23
-9.25
-9.3
-9.335
-9.31
-9.225
-9.085
-8.95
-8.88
-8.93
-9.135
-9.525
-9.995
-10.46
-10.805
-10.99
-11.02
-10.97
-10.92
-10.945
-11.01
-11.07
-11.085
-11.08
-11.07
-11.035
-11.025
-11.05
-11.07
-11.075
-11.015
-10.915
-10.805
-10.66
-10.485
-10.34
-10.2
-10.09
-10.015
-9.955
-9.925
-9.925
-9.935
-9.955
-9.955
-9.97
-9.94
-9.945
-9.94
-9.95
-9.955
-9.925
-9.86
-9.83
-9.81
-9.82
-9.87
-9.93
-9.98
-9.995
-9.985
-9.965
-9.98
-9.98
-9.995
-9.965
-9.945
-9.925
-9.96
-10.015
-10.02
-10.005
-9.97
-9.955
-9.985
-10.04
-10.08
-10.09
-10.09
-10.085
-10.1
-10.105
-10.12
-10.14
-10.135
-10.11
-10.11
-10.085
-10.075
-10.065
-10.055
-10.045
-10.06
-10.06
-10.015
-9.98
-9.985
-10.035
-10.055
-10.01
-9.955
-9.92
-9.92
-9.92
-9.935
-9.95
-9.95
-9.94
-9.905
-9.865
-9.83
-9.81
-9.84
-9.87
-9.905
-9.9
-9.895
-9.86
-9.82
-9.795
-9.825
-9.865
-9.905
-9.92
-9.91
-9.905
-9.89
-9.9
-9.885
-9.87
-9.85
-9.85
-9.865
-9.885
-9.91
-9.95
-9.965
-9.96
-9.94
-9.885
-9.855
-9.82
-9.835
-9.87
-9.94
-10.01
-10.02
-10.0
-9.935
-9.89
-9.895
-9.895
-9.895
-9.9
-9.925
-9.945
-9.955
-9.965
-9.97
-9.98
-9.98
-9.945
-9.905
-9.875
-9.885
-9.88
-9.84
-9.82
-9.815
-9.815
-9.87
-9.9
-9.915
-9.935
-9.975
-10.02
-10.025
-9.99
-9.93
-9.89
-9.85
-9.83
-9.83
-9.815
-9.795
-9.77
-9.755
-9.76
-9.765
-9.74
-9.725
-9.735
-9.77
-9.78
-9.775
-9.795
-9.76
-9.755
-9.745
-9.765
-9.83
-9.865
-9.855
-9.825
-9.8
-9.8
-9.83
-9.865
-9.865
-9.86
-9.835
-9.835
-9.845
-9.865
-9.875
-9.885
-9.855
-9.87
-9.9
-9.99
-10.05
-10.09
-10.07
-10.035
-9.985
-9.93
-9.91
-9.89
-9.905
-9.96
-10.02
-10.04
-10.025
-10.0
-9.995
-9.98
-9.99
-10.005
-10.005
-9.98
-9.965
-9.955
-9.98
-9.98
-10.0
-10.005
-9.99
-9.945
-9.885
-9.805
-9.705
-9.605
-9.475
-9.405
-9.39
-9.41
-9.44
-9.41
-9.285
-9.105
-8.93
-8.835
-8.96
-9.3
-9.785
-10.3
-10.74
-11.04
-11.205
-11.245
-11.215
-11.175
-11.16
-11.18
-11.185
-11.185
-11.17
-11.155
-11.185
-11.19
-11.16
-11.105
-10.985
-10.825
-10.68
-10.525
-10.37
-10.27
-10.16
-10.095
-10.04
-10.045
-10.06
-10.04
-9.995
-9.99
-10.03
-10.04
-10.045
-10.03
-9.97
-9.93
-9.915
-9.91
-9.945
-9.97
-10.005
-10.005
-9.985
-9.975
-9.94
-9.945
-9.945
-9.955
-9.965
-9.99
-10.015
-10.045
-10.06
-10.07
-10.03
-9.985
-9.985
-10.01
-10.07
-10.115
-10.17
-10.17
-10.15
-10.125
-10.1
-10.05
-10.045
-10.035
-10.065
-10.115
-10.14
-10.14
-10.125
-10.12
-10.125
-10.11
-10.105
-10.065
-10.055
-10.035
-10.03
-10.005
-9.995
-9.97
-9.98
-9.965
-9.96
-9.94
-9.94
-9.91
-9.9
-9.88
-9.86
-9.87
-9.895
-9.915
-9.935
-9.95
-9.93
-9.93
-9.905
-9.905
-9.9
-9.9
-9.885
-9.905
-9.935
-9.935
-9.95
-9.965
-9.955
-9.955
-9.94
-9.935
-9.935
-9.94
-9.93
-9.95
-9.965
-9.95
-9.955
-9.975
-9.955
-9.95
-9.945
-9.93
-9.94
-9.945
-9.95
-9.955
-9.975
-9.955
-9.945
-9.93
-9.945
-9.975
-10.0
-9.995
-10.0
-9.98
-9.955
-9.935
-9.905
-9.935
-9.97
-9.995
-9.98
-9.98
-9.955
-9.93
-9.935
-9.915
-9.935
-9.945
-9.965
-9.945
-9.935
-9.915
-9.9
-9.895
-9.91
-9.93
-9.96
-9.965
-9.96
-9.94
-9.94
-9.91
-9.88
-9.865
-9.84
-9.8
-9.78
-9.76
-9.76
-9.75
-9.745
-9.75
-9.74
-9.755
-9.765
-9.78
-9.8
-9.83
-9.85
-9.845
-9.84
-9.835
-9.835
-9.82
-9.795
-9.765
-9.76
-9.77
-9.795
-9.85
-9.895
-9.92
-9.945
-9.935
-9.94
-9.94
-9.955
-9.955
-9.99
-9.985
-9.965
-9.955
-9.94
-9.955
-9.97
-9.98
-9.99
-9.99
-10.005
-9.995
-10.005
-9.99
-9.97
-9.975
-9.975
-9.99
-9.98
-9.975
-9.97
-9.98
-9.995
-10.015
-10.02
-10.015
-10.0
-9.985
-9.945
-9.875
-9.815
-9.67
-9.525
-9.42
-9.37
-9.365
-9.435
-9.485
-9.425
-9.265
-9.055
-8.86
-8.755
-8.83
-9.11
-9.595
-10.13
-10.58
-10.9
-11.085
-11.18
-11.17
-11.175
-11.16
-11.19
-11.225
-11.25
-11.26
-11.26
-11.245
-11.215
-11.155
-11.1
-11.065
-11.025
-10.97
-10.905
-10.805
-10.655
-10.485
-10.345
-10.225
-10.135
-10.065
-9.995
-9.96
-9.945
-9.925
-9.92
-9.885
-9.875
-9.85
-9.85
-9.845
-9.85
-9.855
-9.845
-9.835
-9.795
-9.79
-9.825
-9.84
-9.865
-9.89
-9.89
-9.905
-9.905
-9.915
-9.895
-9.875
-9.87
-9.86
-9.865
-9.875
-9.89
-9.91
-9.935
-9.965
-10.0
-9.97
-9.94
-9.935
-9.935
-9.94
-9.94
-9.94
-9.935
-9.97
-9.985
-10.01
-9.985
-9.97
-9.945
-9.91
-9.89
-9.865
-9.89
-9.87
-9.88
-9.855
-9.825
-9.815
-9.77
-9.76
-9.73
-9.705
-9.665
-9.62
-9.585
-9.545
-9.52
-9.52
-9.555
-9.615
-9.675
-9.68
-9.685
-9.695
-9.7
-9.685
-9.69
-9.69
-9.695
-9.67
-9.635
-9.655
-9.685
-9.73
-9.755
-9.78
-9.77
-9.755
-9.76
-9.745
-9.715
-9.72
-9.74
-9.77
-9.795
-9.805
-9.8
-9.775
-9.78
-9.755
-9.73
-9.735
-9.75
-9.8
-9.81
-9.825
-9.815
-9.815
-9.815
-9.8
-9.79
-9.765
-9.76
-9.775
-9.815
-9.86
-9.87
-9.865
-9.86
-9.845
-9.82
-9.81
-9.795
-9.78
-9.79
-9.785
-9.775
-9.775
-9.795
-9.765
-9.765
-9.75
-9.775
-9.805
-9.82
-9.8
-9.775
-9.77
-9.79
-9.805
-9.82
-9.8
-9.785
-9.745
-9.675
-9.59
-9.49
-9.41
-9.345
-9.325
-9.345
-9.315
-9.205
-9.065
-8.865
-8.7
-8.615
-8.7
-8.965
-9.365
-9.82
-10.225
-10.525
-10.69
-10.785
-10.83
-10.865
-10.91
-10.945
-10.96
-10.94
-10.95
-10.955
-10.965
-10.925
-10.875
-10.81
-10.745
-10.645
-10.55
-10.4
-10.25
-10.115
-9.96
-9.845
-9.775
-9.72
-9.705
-9.72
-9.735
-9.745
-9.755
-9.74
-9.695
-9.665
-9.645
-9.625
-9.64
-9.65
-9.69
-9.715
-9.735
-9.72
-9.71
-9.695
-9.71
-9.7
-9.705
-9.73
-9.755
-9.76
-9.775
-9.75
-9.755
-9.76
-9.755
-9.785
-9.785
-9.775
-9.765
-9.785
-9.825
-9.86
-9.9
-9.91
-9.915
-9.895
-9.88
-9.86
-9.84
-9.825
-9.81
-9.805
-9.81
-9.84
-9.855
-9.895
-9.875
-9.855
-9.84
-9.855
-9.82
-9.78
-9.745
-9.705
-9.715
-9.72
-9.725
-9.75
-9.77
-9.77
-9.735
-9.71
-9.675
-9.69
-9.68
-9.69
-9.695
-9.68
-9.67
-9.63
-9.63
-9.64
-9.65
-9.675
-9.7
-9.71
-9.705
-9.7
-9.69
-9.67
-9.655
-9.655
-9.64
-9.66
-9.68
-9.705
-9.71
-9.725
-9.715
-9.715
-9.69
-9.675
-9.675
-9.69
-9.69
-9.725
-9.735
-9.715
-9.72
-9.695
-9.67
-9.66
-9.68
-9.705
-9.74
-9.75
-9.76
-9.75
-9.725
-9.705
-9.67
-9.67
-9.685
-9.705
-9.71
-9.735
-9.725
-9.735
-9.735
-9.745
-9.72
-9.71
-9.68
-9.67
-9.68
-9.705
-9.72
-9.74
-9.74
-9.75
-9.745
-9.75
-9.745
-9.72
-9.685
-9.69
-9.695
-9.725
-9.755
-9.76
-9.75
-9.75
-9.75
-9.725
-9.72
-9.715
-9.7
-9.695
-9.695
-9.69
-9.705
-9.725
-9.765
-9.785
-9.785
-9.795
-9.785
-9.75
-9.725
-9.725
-9.71
-9.71
-9.715
-9.73
-9.725
-9.735
-9.75
-9.75
-9.75
-9.725
-9.705
-9.675
-9.64
-9.61
-9.625
-9.635
-9.64
-9.64
-9.635
-9.64
-9.655
-9.645
-9.63
-9.615
-9.61
-9.58
-9.58
-9.585
-9.6
-9.62
-9.655
-9.68
-9.685
-9.685
-9.67
-9.66
-9.64
-9.625
-9.615
-9.6
-9.565
-9.58
-9.635
-9.735
-9.805
-9.84
-9.83
-9.82
-9.785
-9.78
-9.815
-9.84
-9.855
-9.88
-9.905
-9.9
-9.905
-9.875
-9.845
-9.84
-9.84
-9.84
-9.84
-9.855
-9.875
-9.88
-9.905
-9.915
-9.905
-9.895
-9.885
-9.925
-9.935
-9.955
-9.94
-9.95
-9.925
-9.855
-9.75
-9.65
-9.525
-9.44
-9.405
-9.415
-9.42
-9.385
-9.26
-9.07
-8.875
-8.745
-8.795
-9.035
-9.445
-9.92
-10.355
-10.62
-10.755
-10.82
-10.895
-10.98
-11.09
-11.205
-11.26
-11.275
-11.245
-11.205
-11.14
-11.105
-11.055
-10.995
-10.93
-10.83
-10.695
-10.555
-10.38
-10.25
-10.12
-10.03
-9.98
-9.96
-9.96
-9.94
-9.925
-9.9
-9.9
-9.905
-9.905
-9.89
-9.895
-9.9
-9.915
-9.93
-9.93
-9.915
-9.9
-9.895
-9.905
-9.925
-9.93
-9.95
-9.97
-9.965
-9.96
-9.955
-9.945
-9.95
-9.945
-9.95
-9.97
-9.995
-9.985
-9.985
-9.995
-9.995
-9.995
-10.03
-10.06
-10.105
-10.095
-10.09
-10.095
-10.085
-10.055
-10.055
-10.05
-10.04
-10.03
-10.025
-10.005
-10.0
-9.995
-10.005
-10.015
-10.015
-10.02
-10.03
-10.015
-9.995
-9.96
-9.93
-9.885
-9.855
-9.835
-9.825
-9.84
-9.84
-9.85
-9.865
-9.88
-9.865
-9.84
-9.79
-9.79
-9.78
-9.785
-9.795
-9.795
-9.82
-9.835
-9.85
-9.875
-9.85
-9.83
-9.825
-9.82
-9.825
-9.84
-9.82
-9.83
-9.84
-9.845
-9.85
-9.845
-9.835
-9.82
-9.805
-9.815
-9.85
-9.89
-9.93
-9.945
-9.935
-9.925
-9.905
-9.88
-9.875
-9.87
-9.86
-9.87
-9.875
-9.87
-9.91
-9.95
-9.96
-9.96
-9.96
-9.945
-9.935
-9.93
-9.925
-9.915
-9.91
-9.905
-9.88
-9.88
-9.9
-9.92
-9.945
-9.945
-9.91
-9.9
-9.94
-9.955
-9.99
-10.01
-10.005
-9.995
-9.965
-9.95
-9.945
-9.92
-9.915
-9.89
-9.88
-9.87
-9.86
-9.855
-9.845
-9.845
-9.835
-9.84
-9.825
-9.82
-9.795
-9.77
-9.745
-9.75
-9.74
-9.75
-9.77
-9.77
-9.82
-9.845
-9.865
-9.865
-9.87
-9.885
-9.9
-9.87
-9.84
-9.815
-9.775
-9.81
-9.81
-9.84
-9.865
-9.9
-9.92
-9.92
-9.92
-9.93
-9.925
-9.955
-10.01
-9.995
-10.025
-10.01
-10.01
-10.005
-9.975
-9.955
-9.965
-9.975
-9.97
-9.965
-9.955
-9.96
-9.985
-10.015
-10.075
-10.065
-10.065
-10.055
-10.035
-10.015
-10.015
-10.03
-10.03
-10.06
-10.055
-10.005
-9.93
-9.815
-9.69
-9.58
-9.515
-9.5
-9.52
-9.525
-9.45
-9.31
-9.1
-8.88
-8.755
-8.74
-8.88
-9.215
-9.66
-10.155
-10.58
-10.875
-11.005
-11.075
-11.085
-11.125
-11.205
-11.275
-11.35
-11.41
-11.415
-11.38
-11.36
-11.325
-11.305
-11.28
-11.255
-11.21
-11.14
-11.055
-10.92
-10.75
-10.575
-10.405
-10.29
-10.19
-10.13
-10.1
-10.09
-10.065
-10.075
-10.055
-10.065
-10.04
-10.055
-10.045
-10.025
-10.0
-10.0
-10.015
-10.01
-10.03
-10.04
-10.07
-10.06
-10.06
-10.065
-10.05
-10.025
-10.035
-10.065
-10.075
-10.08
-10.085
-10.085
-10.095
-10.125
-10.145
-10.18
-10.195
-10.2
-10.2
-10.195
-10.18
-10.18
-10.175
-10.175
-10.175
-10.185
-10.16
-10.16
-10.145
-10.135
-10.145
-10.155
-10.165
-10.165
-10.16
-10.16
-10.155
-10.13
-10.105
-10.12
-10.08
-10.03
-10.01
-9.995
-10.0
-10.035
-10.075
-10.085
-10.09
-10.045
-9.98
-9.95
-9.93
-9.945
-9.95
-9.95
-9.945
-9.925
-9.925
-9.955
-9.99
-10.0
-9.99
-9.98
-9.955
-9.92
-9.915
-9.895
-9.915
-9.925
-9.965
-9.985
-9.99
-9.99
-9.965
-9.955
-9.945
-9.95
-9.96
-9.945
-9.96
-9.98
-9.995
-10.025
-10.01
-10.01
-10.0
-9.995
-9.995
-9.975
-9.98
-9.985
-9.995
-9.98
-10.015
-10.03
-10.025
-10.025
-10.0
-9.945
-9.915
-9.93
-9.99
-10.03
-10.08
-10.095
-10.07
-10.05
-10.01
-9.995
-10.015
-10.005
-10.005
-10.0
-10.0
-9.99
-9.975
-9.97
-9.955
-9.965
-9.98
-10.0
-9.995
-9.975
-9.955
-9.93
-9.915
-9.915
-9.92
-9.92
-9.94
-9.925
-9.905
-9.9
-9.885
-9.875
-9.87
-9.855
-9.86
-9.87
-9.845
-9.835
-9.84
-9.835
-9.835
-9.845
-9.86
-9.855
-9.885
-9.88
-9.89
-9.9
-9.89
-9.885
-9.885
-9.86
-9.86
-9.84
-9.85
-9.855
-9.87
-9.89
-9.89
-9.915
-9.955
-10.0
-10.05
-10.07
-10.065
-10.075
-10.06
-10.055
-10.045
-10.04
-10.045
-10.02
-10.025
-10.02
-10.015
-10.025
-10.025
-10.015
-10.015
-10.04
-10.055
-10.065
-10.07
-10.07
-10.08
-10.07
-10.065
-10.06
-10.09
-10.125
-10.15
-10.17
-10.085
-10.0
-9.88
-9.765
-9.625
-9.53
-9.48
-9.485
-9.5
-9.46
-9.4
-9.26
-9.085
-8.9
-8.775
-8.815
-9.045
-9.445
-9.905
-10.305
-10.62
-10.82
-10.92
-10.96
-11.015
-11.055
-11.11
-11.17
-11.195
-11.185
-11.205
-11.195
-11.205
-11.145
-11.095
-11.02
-10.945
-10.875
-10.755
-10.61
-10.445
-10.285
-10.18
-10.09
-10.045
-10.015
-10.005
-10.01
-9.99
-10.0
-10.0
-9.985
-9.985
-9.985
-9.965
-9.955
-9.93
-9.93
-9.905
-9.915
-9.955
-9.98
-9.985
-9.99
-9.97
-9.965
-9.94
-9.955
-9.945
-9.955
-9.965
-9.97
-9.98
-10.005
-10.035
-10.03
-10.03
-10.04
-10.025
-10.03
-10.045
-10.06
-10.055
-10.085
-10.075
-10.075
-10.085
-10.06
-10.07
-10.085
-10.085
-10.08
-10.075
-10.055
-10.065
-10.055
-10.04
-10.05
-10.06
-10.035
-10.05
-10.025
-10.01
-10.01
-9.985
-9.94
-9.9
-9.875
-9.84
-9.815
-9.805
-9.81
-9.81
-9.825
-9.865
-9.885
-9.885
-9.89
-9.87
-9.855
-9.815
-9.79
-9.8
-9.815
-9.82
-9.81
-9.835
-9.835
-9.835
-9.83
-9.825
-9.81
-9.815
-9.805
-9.805
-9.815
-9.83
-9.83
-9.83
-9.815
-9.81
-9.81
-9.805
-9.82
-9.83
-9.82
-9.795
-9.765
-9.765
-9.78
-9.815
-9.855
-9.89
-9.905
-9.915
-9.895
-9.875
-9.85
-9.835
-9.82
-9.825
-9.825
-9.85
-9.865
-9.86
-9.88
-9.87
-9.86
-9.865
-9.875
-9.88
-9.87
-9.87
-9.875
-9.875
-9.865
-9.855
-9.84
-9.85
-9.835
-9.845
-9.84
-9.835
-9.835
-9.845
-9.85
-9.87
-9.88
-9.87
-9.835
-9.805
-9.775
-9.745
-9.74
-9.74
-9.745
-9.75
-9.755
-9.755
-9.73
-9.705
-9.71
-9.69
-9.665
-9.65
-9.635
-9.64
-9.63
-9.605
-9.64
-9.695
-9.76
-9.815
-9.825
-9.815
-9.785
-9.75
-9.725
-9.705
-9.685
-9.69
-9.67
-9.69
-9.735
-9.78
-9.825
-9.825
-9.84
-9.835
-9.84
-9.845
-9.845
-9.855
-9.855
-9.845
-9.85
-9.86
-9.88
-9.925
-9.95
-9.95
-9.945
-9.915
-9.905
-9.9
-9.9
-9.885
-9.91
-9.9
-9.895
-9.89
-9.895
-9.885
-9.89
-9.925
-9.96
-9.97
-9.985
-9.92
-9.835
-9.715
-9.595
-9.495
-9.435
-9.405
-9.42
-9.405
-9.27
-9.095
-8.86
-8.67
-8.585
-8.66
-8.955
-9.37
-9.82
-10.21
-10.47
-10.62
-10.705
-10.755
-10.82
-10.89
-10.985
-11.045
-11.095
-11.085
-11.065
-11.015
-11.005
-10.995
-10.97
-10.97
-10.935
-10.87
-10.765
-10.64
-10.465
-10.29
-10.14
-10.025
-9.93
-9.9
-9.9
-9.92
-9.945
-9.945
-9.935
-9.915
-9.875
-9.84
-9.84
-9.825
-9.85
-9.86
-9.885
-9.9
-9.895
-9.905
-9.91
-9.9
-9.9
-9.89
-9.89
-9.895
-9.895
-9.895
-9.91
-9.92
-9.925
-9.945
-9.965
-9.98
-10.005
-10.025
-10.03
-10.03
-10.02
-10.035
-10.055
-10.055
-10.07
-10.065
-10.06
-10.055
-10.05
-10.04
-10.035
-10.05
-10.06
-10.05
-10.035
-10.015
-10.005
-9.985
-9.995
-9.985
-9.955
-9.94
-9.92
-9.905
-9.885
-9.88
-9.845
-9.845
-9.885
-9.89
-9.885
-9.86
-9.855
-9.85
-9.86
-9.845
-9.82
-9.815
-9.81
-9.82
-9.845
-9.865
-9.865
-9.865
-9.85
-9.885
-9.88
-9.865
-9.845
-9.82
-9.83
-9.85
-9.87
-9.88
-9.87
-9.86
-9.855
-9.855
-9.875
-9.875
-9.89
-9.88
-9.89
-9.885
-9.885
-9.905
-9.915
-9.95
-9.96
-9.955
-9.95
-9.93
-9.945
-9.935
-9.945
-9.94
-9.93
-9.94
-9.94
-9.945
-9.95
-9.945
-9.935
-9.925
-9.925
-9.925
-9.93
-9.935
-9.94
-9.955
-9.955
-9.96
-9.965
-9.94
-9.945
-9.94
-9.925
-9.92
-9.905
-9.915
-9.905
-9.9
-9.88
-9.9
-9.855
-9.85
-9.855
-9.845
-9.835
-9.805
-9.77
-9.78
-9.75
-9.76
-9.78
-9.77
-9.785
-9.785
-9.765
-9.77
-9.785
-9.835
-9.86
-9.885
-9.87
-9.865
-9.875
-9.875
-9.855
-9.845
-9.835
-9.85
-9.875
-9.9
-9.95
-9.94
-9.96
-9.985
-10.0
-10.01
-10.015
-10.03
-10.045
-10.045
-10.05
-10.055
-10.055
-10.045
-10.045
-10.055
-10.07
-10.09
-10.075
-10.07
-10.065
-10.045
-10.045
-10.04
-10.05
-10.07
-10.085
-10.09
-10.11
-10.13
-10.155
-10.16
-10.1
-10.035
-9.905
-9.79
-9.635
-9.545
-9.495
-9.515
-9.55
-9.53
-9.46
-9.295
-9.075
-8.87
-8.75
-8.785
-9.01
-9.395
-9.875
-10.34
-10.7
-10.94
-11.03
-11.06
-11.09
-11.14
-11.21
-11.26
-11.3
-11.31
-11.29
-11.27
-11.255
-11.235
-11.18
-11.13
-11.095
-11.03
-10.95
-10.815
-10.65
-10.485
-10.345
-10.235
-10.185
-10.185
-10.2
-10.215
-10.2
-10.16
-10.13
-10.085
-10.05
-10.045
-10.045
-10.045
-10.05
-10.045
-10.05
-10.055
-10.06
-10.055
-10.045
-10.07
-10.095
-10.105
-10.1
-10.105
-10.11
-10.105
-10.12
-10.12
-10.11
-10.12
-10.125
-10.14
-10.155
-10.185
-10.185
-10.185
-10.195
-10.185
-10.17
-10.16
-10.16
-10.18
-10.195
-10.215
-10.225
-10.23
-10.24
-10.24
-10.25
-10.255
-10.23
-10.185
-10.17
-10.135
-10.125
-10.125
-10.135
-10.14
-10.155
-10.145
-10.13
-10.095
-10.06
-10.01
-9.985
-9.98
-9.99
-10.0
-10.005
-10.01
-10.0
-9.98
-9.975
-9.955
-9.955
-9.955
-9.96
-9.96
-9.95
-9.94
-9.935
-9.93
-9.94
-9.93
-9.92
-9.92
-9.92
-9.935
-9.97
-9.975
-9.965
-9.965
-9.965
-9.95
-9.96
-9.955
-9.97
-9.96
-9.96
-9.97
-10.005
-10.005
-10.015
-10.0
-10.005
-9.995
-10.01
-9.985
-9.97
-9.965
-9.96
-10.0
-10.02
-10.025
-10.02
-10.0
-10.0
-9.985
-9.99
-9.98
-9.985
-9.985
-9.995
-10.0
-10.0
-9.99
-9.985
-9.96
-9.955
-9.96
-9.95
-9.965
-9.99
-10.005
-10.01
-10.005
-9.985
-9.945
-9.93
-9.905
-9.895
-9.895
-9.9
-9.93
-9.96
-9.955
-9.925
-9.885
-9.835
-9.82
-9.8
-9.79
-9.785
-9.78
-9.78
-9.79
-9.78
-9.795
-9.81
-9.82
-9.85
-9.865
-9.87
-9.89
-9.89
-9.87
-9.865
-9.835
-9.81
-9.79
-9.795
-9.82
-9.86
-9.895
-9.91
-9.94
-9.925
-9.91
-9.9
-9.915
-9.93
-9.925
-9.945
-9.95
-9.955
-9.96
-9.955
-9.96
-9.965
-9.975
-9.985
-9.985
-9.99
-9.99
-9.985
-9.99
-9.97
-9.94
-9.93
-9.945
-9.93
-9.935
-9.96
-9.975
-10.0
-10.03
-10.025
-10.015
-9.96
-9.835
-9.715
-9.575
-9.45
-9.385
-9.375
-9.415
-9.41
-9.34
-9.195
-8.98
-8.78
-8.655
-8.7
-8.905
-9.275
-9.73
-10.16
-10.465
-10.645
-10.75
-10.815
-10.86
-10.9
-10.94
-10.965
-10.96
-10.95
-10.925
-10.94
-10.935
-10.955
-10.97
-10.94
-10.9
-10.82
-10.69
-10.53
-10.36
-10.185
-10.065
-9.99
-9.935
-9.91
-9.885
-9.86
-9.84
-9.815
-9.775
-9.765
-9.78
-9.8
-9.855
-9.895
-9.905
-9.91
-9.885
-9.885
-9.87
-9.84
-9.835
-9.83
-9.845
-9.855
-9.87
-9.89
-9.9
-9.91
-9.91
-9.91
-9.91
-9.91
-9.915
-9.91
-9.925
-9.94
-9.955
-9.96
-9.965
-9.985
-10.0
-10.01
-10.005
-9.985
-9.985
-9.975
-10.005
-9.99
-9.97
-9.97
-9.98
-10.01
-10.025
-10.02
-10.01
-9.985
-9.985
-9.94
-9.92
-9.905
-9.915
-9.9
-9.905
-9.88
-9.865
-9.83
-9.78
-9.76
-9.725
-9.755
-9.81
-9.855
-9.865
-9.87
-9.83
-9.795
-9.765
-9.745
-9.75
-9.755
-9.75
-9.765
-9.75
-9.735
-9.745
-9.745
-9.74
-9.745
-9.745
-9.755
-9.755
-9.755
-9.79
-9.81
-9.8
-9.77
-9.775
-9.76
-9.755
-9.76
-9.78
-9.78
-9.79
-9.785
-9.785
-9.785
-9.77
-9.765
-9.765
-9.77
-9.78
-9.79
-9.81
-9.8
-9.795
-9.805
-9.775
-9.775
-9.775
-9.77
-9.79
-9.805
-9.82
-9.83
-9.83
-9.805
-9.78
-9.75
-9.73
-9.76
-9.775
-9.805
-9.825
-9.835
-9.83
-9.835
-9.82
-9.785
-9.76
-9.75
-9.725
-9.715
-9.71
-9.7
-9.695
-9.69
-9.655
-9.635
-9.62
-9.625
-9.615
-9.62
-9.63
-9.63
-9.64
-9.645
-9.645
-9.655
-9.66
-9.66
-9.665
-9.69
-9.69
-9.695
-9.695
-9.7
-9.695
-9.69
-9.685
-9.67
-9.7
-9.71
-9.755
-9.75
-9.78
-9.795
-9.77
-9.765
-9.77
-9.77
-9.795
-9.8
-9.86
-9.9
-9.925
-9.93
-9.92
-9.88
-9.855
-9.835
-9.83
-9.82
-9.83
-9.83
-9.84
-9.85
-9.87
-9.865
-9.89
-9.895
-9.89
-9.88
-9.92
-9.93
-9.935
-9.945
-9.955
-9.94
-9.905
-9.84
-9.76
-9.675
-9.585
-9.5
-9.46
-9.465
-9.455
-9.38
-9.245
-9.025
-8.795
-8.585
-8.49
-8.515
-8.735
-9.06
-9.45
-9.82
-10.1
-10.305
-10.395
-10.49
-10.595
-10.69
-10.795
-10.875
-10.92
-10.925
-10.915
-10.895
-10.89
-10.875
-10.85
-10.85
-10.825
-10.81
-10.74
-10.655
-10.535
-10.365
-10.235
-10.115
-10.05
-10.0
-9.975
-9.93
-9.915
-9.9
-9.87
-9.84
-9.84
-9.835
-9.84
-9.835
-9.83
-9.815
-9.81
-9.815
-9.82
-9.825
-9.815
-9.805
-9.82
-9.81
-9.83
-9.86
-9.9
-9.92
-9.925
-9.93
-9.91
-9.905
-9.92
-9.91
-9.93
-9.92
-9.945
-9.955
-9.965
-9.99
-9.985
-10.0
-9.995
-10.0
-10.015
-10.04
-10.045
-10.03
-10.025
-10.02
-10.01
-10.01
-10.02
-10.005
-10.0
-9.995
-10.0
-10.0
-10.0
-9.98
-9.965
-9.945
-9.955
-9.935
-9.945
-9.93
-9.915
-9.895
-9.865
-9.85
-9.82
-9.775
-9.77
-9.79
-9.81
-9.825
-9.81
-9.775
-9.77
-9.75
-9.75
-9.755
-9.76
-9.755
-9.755
-9.78
-9.785
-9.805
-9.815
-9.805
-9.8
-9.785
-9.775
-9.77
-9.765
-9.78
-9.785
-9.775
-9.775
-9.785
-9.78
-9.78
-9.775
-9.785
-9.78
-9.775
-9.755
-9.755
-9.775
-9.805
-9.845
-9.87
-9.885
-9.89
-9.86
-9.835
-9.815
-9.8
-9.8
-9.81
-9.8
-9.82
-9.84
-9.845
-9.855
-9.85
-9.85
-9.835
-9.82
-9.81
-9.805
-9.805
-9.79
-9.825
-9.83
-9.845
-9.84
-9.865
-9.86
-9.845
-9.815
-9.795
-9.78
-9.77
-9.775
-9.78
-9.785
-9.775
-9.77
-9.77
-9.735
-9.705
-9.69
-9.67
-9.63
-9.615
-9.615
-9.62
-9.625
-9.635
-9.645
-9.645
-9.665
-9.685
-9.7
-9.725
-9.725
-9.735
-9.74
-9.735
-9.73
-9.71
-9.715
-9.715
-9.745
-9.77
-9.795
-9.795
-9.79
-9.81
-9.81
-9.81
-9.82
-9.84
-9.87
-9.885
-9.925
-9.92
-9.915
-9.9
-9.89
-9.875
-9.86
-9.855
-9.855
-9.865
-9.88
-9.9
-9.935
-9.94
-9.93
-9.915
-9.885
-9.865
-9.865
-9.91
-9.905
-9.955
-10.0
-10.045
-10.06
-10.01
-9.915
-9.81
-9.675
-9.58
-9.5
-9.49
-9.5
-9.485
-9.395
-9.22
-8.98
-8.71
-8.51
-8.455
-8.6
-8.94
-9.41
-9.875
-10.245
-10.505
-10.625
-10.705
-10.795
-10.88
-10.925
-10.945
-10.915
-10.91
-10.905
-10.92
-10.915
-10.925
-10.88
-10.83
-10.745
-10.655
-10.56
-10.445
-10.335
-10.22
-10.13
-10.07
-10.005
-9.96
-9.93
-9.92
-9.905
-9.91
-9.88
-9.865
-9.855
-9.845
-9.855
-9.85
-9.875
-9.9
-9.9
-9.895
-9.905
-9.88
-9.87
-9.86
-9.85
-9.845
-9.865
-9.88
-9.925
-9.935
-9.93
-9.96
-9.975
-9.97
-9.96
-9.975
-10.0
-10.01
-10.04
-10.07
-10.085
-10.105
-10.1
-10.085
-10.085
-10.075
-10.065
-10.05
-10.045
-10.025
-10.015
-10.0
-10.01
-10.02
-10.04
-10.03
-10.035
-9.99
-9.975
-9.955
-9.935
-9.92
-9.92
-9.89
-9.87
-9.845
-9.845
-9.83
-9.825
-9.815
-9.81
-9.805
-9.81
-9.795
-9.78
-9.76
-9.76
-9.765
-9.775
-9.785
-9.79
-9.775
-9.77
-9.765
-9.765
-9.78
-9.785
-9.775
-9.78
-9.785
-9.8
-9.79
-9.79
-9.795
-9.81
-9.8
-9.82
-9.785
-9.79
-9.795
-9.795
-9.81
-9.825
-9.81
-9.825
-9.81
-9.77
-9.755
-9.75
-9.77
-9.83
-9.88
-9.905
-9.915
-9.9
-9.885
-9.87
-9.865
-9.86
-9.85
-9.855
-9.84
-9.815
-9.815
-9.825
-9.83
-9.835
-9.835
-9.835
-9.835
-9.85
-9.845
-9.835
-9.82
-9.81
-9.805
-9.805
-9.81
-9.805
-9.81
-9.81
-9.81
-9.79
-9.785
-9.77
-9.735
-9.715
-9.695
-9.695
-9.7
-9.725
-9.73
-9.725
-9.69
-9.65
-9.615
-9.61
-9.6
-9.65
-9.675
-9.7
-9.73
-9.745
-9.78
-9.78
-9.785
-9.765
-9.745
-9.71
-9.685
-9.66
-9.655
-9.65
-9.665
-9.685
-9.73
-9.78
-9.83
-9.86
-9.86
-9.88
-9.85
-9.85
-9.855
-9.88
-9.92
-9.945
-9.95
-9.97
-9.935
-9.915
-9.865
-9.825
-9.81
-9.85
-9.91
-9.96
-9.995
-9.995
-9.975
-9.945
-9.925
-9.915
-9.93
-9.935
-9.94
-9.955
-9.97
-9.965
-9.94
-9.855
-9.745
-9.62
-9.495
-9.415
-9.395
-9.39
-9.355
-9.26
-9.095
-8.855
-8.635
-8.49
-8.475
-8.625
-8.955
-9.37
-9.815
-10.195
-10.47
-10.645
-10.705
-10.75
-10.795
-10.875
-10.99
-11.075
-11.13
-11.14
-11.105
-11.06
-11.04
-11.065
-11.06
-11.055
-11.04
-10.98
-10.905
-10.795
-10.63
-10.435
-10.275
-10.195
-10.105
-10.075
-10.08
-10.075
-10.07
-10.065
-10.03
-10.01
-9.975
-9.96
-9.94
-9.94
-9.93
-9.935
-9.94
-9.94
-9.95
-9.97
-9.965
-9.965
-9.96
-9.96
-9.95
-9.97
-9.995
-9.99
-10.025
-10.05
-10.085
-10.105
-10.115
-10.14
-10.135
-10.125
-10.115
-10.11
-10.11
-10.12
-10.15
-10.155
-10.175
-10.19
-10.19
-10.205
-10.195
-10.18
-10.17
-10.16
-10.15
-10.14
-10.15
-10.145
-10.155
-10.135
-10.115
-10.11
-10.085
-10.08
-10.095
-10.1
-10.085
-10.06
-10.045
-10.01
-10.0
-9.985
-9.96
-9.965
-9.95
-9.95
-9.945
-9.955
-9.92
-9.95
-9.91
-9.93
-9.93
-9.955
-9.965
-9.97
-9.945
-9.92
-9.91
-9.895
-9.87
-9.88
-9.905
-9.945
-10.005
-10.02
-10.025
-9.995
-9.985
-9.965
-9.945
-9.95
-9.95
-9.97
-9.985
-10.005
-10.005
-10.005
-10.015
-10.015
-10.015
-10.01
-10.005
-10.0
-10.01
-10.03
-10.05
-10.035
-10.055
-10.065
-10.065
-10.095
-10.095
-10.085
-10.07
-10.06
-10.055
-10.04
-10.04
-10.05
-10.05
-10.065
-10.075
-10.075
-10.09
-10.075
-10.06
-10.04
-10.045
-10.045
-10.07
-10.08
-10.08
-10.105
-10.075
-10.08
-10.05
-10.025
-10.0
-9.97
-9.95
-9.955
-9.965
-9.96
-9.97
-9.94
-9.935
-9.905
-9.89
-9.88
-9.865
-9.87
-9.845
-9.865
-9.88
-9.9
-9.93
-9.975
-9.995
-10.025
-10.03
-10.01
-9.985
-9.955
-9.93
-9.91
-9.905
-9.915
-9.945
-9.995
-10.025
-10.065
-10.085
-10.105
-10.105
-10.12
-10.115
-10.13
-10.14
-10.16
-10.175
-10.195
-10.195
-10.2
-10.215
-10.205
-10.195
-10.195
-10.175
-10.185
-10.19
-10.2
-10.205
-10.215
-10.19
-10.205
-10.2
-10.2
-10.22
-10.245
-10.265
-10.265
-10.25
-10.215
-10.15
-10.06
-9.935
-9.795
-9.685
-9.62
-9.61
-9.605
-9.575
-9.49
-9.305
-9.085
-8.85
-8.765
-8.82
-9.115
-9.585
-10.1
-10.555
-10.88
-11.015
-11.095
-11.115
-11.135
-11.205
-11.26
-11.33
-11.37
-11.405
-11.405
-11.41
-11.355
-11.315
-11.235
-11.185
-11.12
-11.01
-10.87
-10.73
-10.585
-10.455
-10.365
-10.32
-10.31
-10.29
-10.295
-10.28
-10.265
-10.265
-10.26
-10.27
-10.26
-10.245
-10.24
-10.225
-10.22
-10.195
-10.21
-10.24
-10.245
-10.275
-10.28
-10.295
-10.285
-10.255
-10.25
-10.25
-10.26
-10.265
-10.295
-10.305
-10.32
-10.335
-10.34
-10.35
-10.375
-10.375
-10.375
-10.41
-10.39
-10.37
-10.375
-10.38
-10.365
-10.385
-10.405
-10.4
-10.41
-10.39
-10.385
-10.39
-10.39
-10.375
-10.375
-10.375
-10.355
-10.34
-10.315
-10.31
-10.3
-10.28
-10.255
-10.245
-10.235
-10.205
-10.185
-10.17
-10.165
-10.17
-10.175
-10.195
-10.185
-10.19
-10.17
-10.155
-10.145
-10.145
-10.145
-10.145
-10.145
-10.15
-10.135
-10.14
-10.135
-10.135
-10.13
-10.135
-10.145
-10.14
-10.17
-10.18
-10.19
-10.19
-10.21
-10.22
-10.235
-10.21
-10.215
-10.205
-10.2
-10.195
-10.19
-10.18
-10.195
-10.19
-10.195
-10.2
-10.205
-10.215
-10.205
-10.205
-10.205
-10.205
-10.195
-10.185
-10.2
-10.2
-10.205
-10.205
-10.195
-10.19
-10.205
-10.195
-10.18
-10.165
-10.175
-10.17
-10.17
-10.175
-10.17
-10.17
-10.2
-10.2
-10.195
-10.18
-10.175
-10.15
-10.12
-10.12
-10.115
-10.105
-10.095
-10.09
-10.095
-10.08
-10.05
-10.015
-10.0
-9.96
-9.94
-9.945
-9.95
-9.955
-9.985
-9.99
-10.01
-10.0
-10.005
-10.02
-10.04
-10.03
-10.04
-10.045
-10.035
-10.03
-10.025
-9.98
-9.975
-9.98
-10.01
-10.05
-10.1
-10.1
-10.14
-10.125
-10.13
-10.13
-10.125
-10.16
-10.19
-10.205
-10.235
-10.22
-10.205
-10.17
-10.185
-10.175
-10.18
-10.185
-10.195
-10.205
-10.195
-10.215
-10.21
-10.2
-10.19
-10.18
-10.165
-10.165
-10.185
-10.19
-10.215
-10.23
-10.245
-10.245
-10.24
-10.245
-10.19
-10.105
-9.975
-9.82
-9.66
-9.565
-9.56
-9.58
-9.58
-9.52
-9.36
-9.115
-8.88
-8.69
-8.635
-8.765
-9.08
-9.555
-10.055
-10.485
-10.79
-10.945
-11.01
-11.03
-11.045
-11.09
-11.15
-11.225
-11.24
-11.24
-11.235
-11.185
-11.175
-11.17
-11.15
-11.125
-11.06
-10.975
-10.865
-10.725
-10.575
-10.45
-10.36
-10.29
-10.24
-10.215
-10.19
-10.17
-10.15
-10.105
-10.09
-10.08
-10.09
-10.105
-10.11
-10.115
-10.095
-10.08
-10.075
-10.07
-10.075
-10.07
-10.1
-10.11
-10.12
-10.125
-10.14
-10.145
-10.15
-10.15
-10.14
-10.145
-10.13
-10.145
-10.16
-10.17
-10.19
-10.215
-10.255
-10.245
-10.255
-10.24
-10.235
-10.22
-10.215
-10.215
-10.235
-10.25
-10.24
-10.25
-10.255
-10.25
-10.25
-10.235
-10.245
-10.24
-10.255
-10.22
-10.185
-10.165
-10.145
-10.125
-10.1
-10.1
-10.11
-10.105
-10.08
-10.055
-10.02
-9.985
-9.955
-9.945
-9.945
-9.945
-9.945
-9.95
-9.935
-9.93
-9.92
-9.9
-9.91
-9.895
-9.91
-9.9
-9.895
-9.9
-9.9
-9.925
-9.935
-9.96
-9.955
-9.925
-9.915
-9.89
-9.895
-9.9
-9.935
-9.95
-9.95
-9.965
-9.96
-9.945
-9.935
-9.92
-9.92
-9.91
-9.915
-9.91
-9.92
-9.925
-9.91
-9.92
-9.92
-9.925
-9.93
-9.94
-9.94
-9.965
-9.97
-9.955
-9.935
-9.955
-9.945
-9.96
-9.96
-9.965
-9.96
-9.96
-9.95
-9.93
-9.92
-9.92
-9.91
-9.91
-9.92
-9.93
-9.92
-9.915
-9.92
-9.9
-9.875
-9.835
-9.8
-9.8
-9.795
-9.79
-9.775
-9.755
-9.75
-9.735
-9.72
-9.73
-9.72
-9.69
-9.69
-9.675
-9.675
-9.685
-9.7
-9.72
-9.75
-9.78
-9.805
-9.805
-9.795
-9.775
-9.75
-9.72
-9.705
-9.7
-9.705
-9.72
-9.765
-9.795
-9.825
-9.865
-9.89
-9.89
-9.89
-9.9
-9.89
-9.895
-9.905
-9.9
-9.895
-9.905
-9.915
-9.93
-9.935
-9.935
-9.94
-9.925
-9.925
-9.925
-9.93
-9.93
-9.94
-9.93
-9.925
-9.925
-9.91
-9.905
-9.915
-9.955
-10.005
-10.03
-10.015
-9.965
-9.845
-9.715
-9.545
-9.405
-9.325
-9.295
-9.305
-9.295
-9.22
-9.05
-8.825
-8.56
-8.39
-8.33
-8.46
-8.795
-9.26
-9.74
-10.16
-10.44
-10.6
-10.67
-10.725
-10.8
-10.87
-10.93
-10.995
-10.975
-10.97
-10.96
-10.94
-10.93
-10.915
-10.89
-10.845
-10.8
-10.69
-10.57
-10.415
-10.25
-10.135
-10.035
-9.97
-9.915
-9.885
-9.875
-9.88
-9.88
-9.87
-9.865
-9.85
-9.855
-9.845
-9.84
-9.855
-9.83
-9.835
-9.835
-9.86
-9.86
-9.87
-9.88
-9.87
-9.865
-9.885
-9.87
-9.87
-9.885
-9.91
-9.935
-9.955
-9.975
-9.98
-9.975
-9.97
-9.94
-9.92
-9.905
-9.895
-9.9
-9.95
-10.005
-10.045
-10.09
-10.09
-10.075
-10.045
-10.01
-9.985
-9.97
-9.96
-9.955
-9.955
-9.95
-9.965
-9.955
-9.96
-9.94
-9.92
-9.885
-9.855
-9.815
-9.775
-9.77
-9.77
-9.775
-9.78
-9.79
-9.795
-9.79
-9.765
-9.75
-9.72
-9.69
-9.675
-9.695
-9.71
-9.73
-9.73
-9.73
-9.735
-9.74
-9.715
-9.71
-9.68
-9.67
-9.675
-9.675
-9.67
-9.675
-9.69
-9.7
-9.755
-9.76
-9.74
-9.73
-9.725
-9.715
-9.72
-9.71
-9.71
-9.705
-9.71
-9.715
-9.715
-9.72
-9.74
-9.735
-9.72
-9.705
-9.715
-9.72
-9.74
-9.77
-9.76
-9.755
-9.755
-9.745
-9.755
-9.75
-9.745
-9.735
-9.725
-9.72
-9.705
-9.72
-9.74
-9.74
-9.745
-9.735
-9.74
-9.72
-9.7
-9.685
-9.675
-9.67
-9.665
-9.665
-9.65
-9.63
-9.615
-9.59
-9.6
-9.6
-9.605
-9.6
-9.57
-9.555
-9.55
-9.56
-9.535
-9.51
-9.515
-9.505
-9.505
-9.49
-9.48
-9.47
-9.48
-9.505
-9.545
-9.58
-9.615
-9.63
-9.615
-9.6
-9.57
-9.525
-9.515
-9.505
-9.54
-9.575
-9.605
-9.64
-9.66
-9.67
-9.69
-9.7
-9.69
-9.715
-9.72
-9.73
-9.74
-9.76
-9.775
-9.775
-9.76
-9.785
-9.79
-9.81
-9.805
-9.8
-9.79
-9.77
-9.745
-9.74
-9.74
-9.765
-9.78
-9.805
-9.815
-9.84
-9.83
-9.835
-9.845
-9.835
-9.805
-9.745
-9.635
-9.47
-9.315
-9.2
-9.135
-9.13
-9.15
-9.135
-9.04
-8.845
-8.595
-8.355
-8.21
-8.255
-8.51
-8.95
-9.455
-9.925
-10.28
-10.475
-10.57
-10.615
-10.66
-10.72
-10.785
-10.87
-10.93
-10.95
-10.945
-10.93
-10.9
-10.87
-10.84
-10.815
-10.77
-10.715
-10.675
-10.59
-10.475
-10.34
-10.21
-10.085
-9.965
-9.895
-9.825
-9.79
-9.785
-9.77
-9.765
-9.755
-9.75
-9.755
-9.755
-9.73
-9.735
-9.745
-9.75
-9.735
-9.72
-9.725
-9.725
-9.735
-9.76
-9.775
-9.775
-9.765
-9.765
-9.75
-9.75
-9.765
-9.77
-9.785
-9.8
-9.83
-9.84
-9.875
-9.875
-9.87
-9.865
-9.88
-9.88
-9.875
-9.875
-9.895
-9.915
-9.925
-9.94
-9.965
-9.96
-9.955
-9.94
-9.935
-9.915
-9.91
-9.885
-9.87
-9.885
-9.875
-9.865
-9.845
-9.83
-9.82
-9.805
-9.795
-9.78
-9.77
-9.745
-9.735
-9.715
-9.705
-9.685
-9.67
-9.675
-9.65
-9.645
-9.63
-9.625
-9.64
-9.65
-9.66
-9.68
-9.69
-9.695
-9.695
-9.68
-9.665
-9.65
-9.65
-9.65
-9.65
-9.665
-9.66
-9.68
-9.67
-9.675
-9.685
-9.695
-9.685
-9.685
-9.7
-9.705
-9.685
-9.68
-9.68
-9.69
-9.705
-9.72
-9.725
-9.735
-9.745
-9.735
-9.74
-9.725
-9.72
-9.72
-9.705
-9.705
-9.74
-9.75
-9.755
-9.75
-9.745
-9.76
-9.72
-9.715
-9.715
-9.71
-9.72
-9.715
-9.72
-9.705
-9.71
-9.725
-9.745
-9.77
-9.765
-9.755
-9.745
-9.73
-9.72
-9.7
-9.695
-9.675
-9.67
-9.66
-9.645
-9.625
-9.615
-9.595
-9.555
-9.535
-9.52
-9.525
-9.535
-9.52
-9.51
-9.515
-9.515
-9.54
-9.525
-9.535
-9.56
-9.565
-9.57
-9.575
-9.6
-9.6
-9.62
-9.605
-9.575
-9.56
-9.525
-9.525
-9.55
-9.565
-9.605
-9.635
-9.665
-9.665
-9.685
-9.695
-9.685
-9.7
-9.71
-9.725
-9.735
-9.75
-9.75
-9.765
-9.755
-9.765
-9.76
-9.795
-9.775
-9.76
-9.73
-9.74
-9.73
-9.72
-9.725
-9.705
-9.71
-9.745
-9.785
-9.8
-9.835
-9.85
-9.855
-9.845
-9.835
-9.785
-9.695
-9.585
-9.445
-9.285
-9.145
-9.095
-9.085
-9.12
-9.09
-8.985
-8.815
-8.57
-8.34
-8.185
-8.2
-8.36
-8.69
-9.165
-9.665
-10.07
-10.35
-10.49
-10.56
-10.62
-10.695
-10.775
-10.85
-10.885
-10.9
-10.87
-10.84
-10.825
-10.79
-10.755
-10.7
-10.675
-10.645
-10.545
-10.43
-10.29
-10.15
-10.025
-9.905
-9.815
-9.76
-9.73
-9.71
-9.695
-9.68
-9.66
-9.665
-9.665
-9.675
-9.685
-9.685
-9.66
-9.645
-9.625
-9.61
-9.61
-9.63
-9.655
-9.665
-9.68
-9.68
-9.67
-9.66
-9.665
-9.655
-9.685
-9.715
-9.73
-9.76
-9.765
-9.76
-9.76
-9.775
-9.79
-9.79
-9.8
-9.79
-9.785
-9.775
-9.78
-9.795
-9.82
-9.84
-9.855
-9.855
-9.86
-9.855
-9.84
-9.825
-9.795
-9.79
-9.775
-9.755
-9.765
-9.76
-9.745
-9.735
-9.73
-9.705
-9.675
-9.655
-9.63
-9.595
-9.575
-9.565
-9.545
-9.55
-9.565
-9.57
-9.585
-9.575
-9.565
-9.54
-9.515
-9.495
-9.47
-9.455
-9.46
-9.46
-9.49
-9.52
-9.525
-9.535
-9.505
-9.485
-9.48
-9.465
-9.475
-9.485
-9.485
-9.505
-9.5
-9.51
-9.5
-9.485
-9.495
-9.495
-9.515
-9.525
-9.51
-9.51
-9.485
-9.485
-9.5
-9.515
-9.51
-9.51
-9.51
-9.485
-9.5
-9.5
-9.505
-9.505
-9.525
-9.54
-9.525
-9.525
-9.53
-9.525
-9.525
-9.515
-9.505
-9.505
-9.465
-9.48
-9.45
-9.46
-9.475
-9.495
-9.51
-9.505
-9.505
-9.475
-9.47
-9.45
-9.445
-9.435
-9.41
-9.39
-9.385
-9.365
-9.37
-9.36
-9.355
-9.315
-9.29
-9.26
-9.24
-9.23
-9.23
-9.25
-9.245
-9.265
-9.26
-9.27
-9.285
-9.305
-9.315
-9.33
-9.335
-9.33
-9.32
-9.32
-9.315
-9.305
-9.28
-9.275
-9.295
-9.335
-9.38
-9.415
-9.415
-9.425
-9.415
-9.415
-9.405
-9.405
-9.44
-9.475
-9.48
-9.495
-9.5
-9.49
-9.5
-9.52
-9.51
-9.52
-9.52
-9.52
-9.515
-9.525
-9.515
-9.495
-9.49
-9.465
-9.48
-9.48
-9.48
-9.505
-9.535
-9.58
-9.59
-9.61
-9.545
-9.465
-9.345
-9.19
-9.06
-8.95
-8.915
-8.92
-8.94
-8.88
-8.745
-8.51
-8.225
-7.985
-7.88
-7.94
-8.2
-8.625
-9.1
-9.54
-9.88
-10.08
-10.155
-10.195
-10.245
-10.305
-10.37
-10.45
-10.5
-10.525
-10.525
-10.51
-10.48
-10.49
-10.465
-10.45
-10.415
-10.35
-10.25
-10.095
-9.935
-9.785
-9.66
-9.57
-9.505
-9.485
-9.5
-9.495
-9.49
-9.48
-9.455
-9.425
-9.385
-9.365
-9.355
-9.365
-9.385
-9.405
-9.415
-9.415
-9.41
-9.4
-9.405
-9.41
-9.43
-9.445
-9.44
-9.46
-9.465
-9.475
-9.49
-9.485
-9.49
-9.495
-9.49
-9.48
-9.485
-9.5
-9.515
-9.545
-9.56
-9.575
-9.565
-9.57
-9.565
-9.535
-9.525
-9.525
-9.52
-9.54
-9.55
-9.565
-9.615
-9.61
-9.605
-9.595
-9.58
-9.545
-9.52
-9.505
-9.5
-9.51
-9.5
-9.515
-9.505
-9.48
-9.475
-9.465
-9.45
-9.42
-9.395
-9.36
-9.325
-9.31
-9.295
-9.285
-9.29
-9.29
-9.295
-9.3
-9.305
-9.295
-9.295
-9.28
-9.27
-9.265
-9.265
-9.275
-9.285
-9.295
-9.295
-9.3
-9.29
-9.27
-9.255
-9.245
-9.24
-9.24
-9.25
-9.28
-9.285
-9.3
-9.295
-9.305
-9.28
-9.28
-9.275
-9.275
-9.26
-9.275
-9.255
-9.265
-9.28
-9.29
-9.305
-9.32
-9.32
-9.325
-9.325
-9.3
-9.3
-9.315
-9.305
-9.295
-9.305
-9.33
-9.3
-9.31
-9.29
-9.29
-9.275
-9.27
-9.275
-9.29
-9.32
-9.355
-9.335
-9.315
-9.3
-9.28
-9.27
-9.25
-9.24
-9.215
-9.2
-9.175
-9.17
-9.14
-9.12
-9.11
-9.115
-9.085
-9.07
-9.07
-9.065
-9.05
-9.06
-9.075
-9.07
-9.095
-9.13
-9.175
-9.215
-9.215
-9.215
-9.205
-9.16
-9.13
-9.105
-9.075
-9.09
-9.09
-9.125
-9.17
-9.22
-9.25
-9.265
-9.28
-9.29
-9.275
-9.27
-9.295
-9.31
-9.33
-9.345
-9.365
-9.37
-9.365
-9.355
-9.34
-9.335
-9.34
-9.34
-9.355
-9.365
-9.37
-9.375
-9.385
-9.375
-9.38
-9.38
-9.365
-9.365
-9.375
-9.395
-9.42
-9.475
-9.49
-9.47
-9.38
-9.255
-9.12
-8.98
-8.895
-8.865
-8.815
-8.71
-8.535
-8.265
-7.99
-7.805
-7.78
-7.945
-8.31
-8.775
-9.24
-9.61
-9.845
-9.955
-10.02
-10.09
-10.175
-10.27
-10.375
-10.415
-10.44
-10.415
-10.4
-10.37
-10.355
-10.315
-10.3
-10.285
-10.285
-10.235
-10.11
-9.975
-9.825
-9.675
-9.555
-9.455
-9.405
-9.38
-9.365
-9.365
-9.36
-9.36
-9.35
-9.355
-9.355
-9.345
-9.32
-9.31
-9.29
-9.29
-9.285
-9.325
-9.355
-9.355
-9.36
-9.37
-9.355
-9.355
-9.355
-9.36
-9.365
-9.345
-9.375
-9.375
-9.375
-9.405
-9.43
-9.465
-9.49
-9.5
-9.495
-9.48
-9.475
-9.47
-9.47
-9.485
-9.49
-9.505
-9.53
-9.55
-9.56
-9.545
-9.535
-9.52
-9.485
-9.47
-9.465
-9.47
-9.48
-9.49
-9.49
-9.465
-9.445
-9.425
-9.385
-9.375
-9.34
-9.315
-9.325
-9.315
-9.295
-9.285
-9.27
-9.265
-9.25
-9.245
-9.23
-9.225
-9.205
-9.195
-9.225
-9.22
-9.24
-9.23
-9.235
-9.225
-9.225
-9.235
-9.225
-9.235
-9.235
-9.225
-9.21
-9.21
-9.22
-9.22
-9.235
-9.275
-9.28
-9.26
-9.26
-9.25
-9.24
-9.23
-9.235
-9.23
-9.25
-9.245
-9.25
-9.255
-9.245
-9.25
-9.275
-9.275
-9.26
-9.255
-9.28
-9.31
-9.285
-9.29
-9.29
-9.29
-9.275
-9.28
-9.265
-9.275
-9.26
-9.265
-9.27
-9.265
-9.285
-9.28
-9.29
-9.295
-9.27
-9.26
-9.245
-9.245
-9.235
-9.23
-9.23
-9.2
-9.21
-9.19
-9.17
-9.175
-9.16
-9.145
-9.14
-9.12
-9.09
-9.065
-9.04
-9.03
-9.025
-9.03
-9.045
-9.06
-9.06
-9.05
-9.035
-9.025
-9.005
-9.055
-9.1
-9.15
-9.19
-9.2
-9.185
-9.165
-9.135
-9.11
-9.095
-9.08
-9.085
-9.09
-9.14
-9.18
-9.22
-9.24
-9.255
-9.255
-9.255
-9.285
-9.285
-9.3
-9.305
-9.295
-9.295
-9.3
-9.3
-9.3
-9.325
-9.335
-9.33
-9.33
-9.32
-9.325
-9.305
-9.315
-9.3
-9.285
-9.28
-9.295
-9.32
-9.33
-9.35
-9.375
-9.415
-9.415
-9.41
-9.34
-9.25
-9.11
-8.98
-8.87
-8.8
-8.76
-8.77
-8.75
-8.655
-8.5
-8.255
-8.005
-7.8
-7.695
-7.785
-8.04
-8.465
-8.97
-9.41
-9.74
-9.965
-10.045
-10.105
-10.185
-10.28
-10.36
-10.425
-10.47
-10.49
-10.49
-10.475
-10.445
-10.42
-10.385
-10.34
-10.27
-10.2
-10.09
-9.985
-9.835
-9.695
-9.57
-9.465
-9.39
-9.34
-9.31
-9.305
-9.305
-9.285
-9.275
-9.28
-9.28
-9.29
-9.27
-9.27
-9.275
-9.27
-9.275
-9.28
-9.28
-9.27
-9.255
-9.275
-9.275
-9.305
-9.33
-9.355
-9.355
-9.365
-9.35
-9.35
-9.355
-9.35
-9.375
-9.395
-9.395
-9.41
-9.435
-9.445
-9.43
-9.445
-9.47
-9.46
-9.455
-9.47
-9.46
-9.48
-9.49
-9.505
-9.525
-9.51
-9.495
-9.47
-9.455
-9.455
-9.415
-9.39
-9.385
-9.36
-9.345
-9.315
-9.275
-9.24
-9.18
-9.15
-9.135
-9.11
-9.1
-9.085
-9.07
-9.045
-9.02
-8.99
-8.96
-8.93
-8.915
-8.92
-8.935
-8.98
-9.035
-9.11
-9.16
-9.185
-9.19
-9.2
-9.175
-9.195
-9.17
-9.155
-9.17
-9.18
-9.2
-9.23
-9.26
-9.305
-9.325
-9.355
-9.365
-9.375
-9.36
-9.37
-9.355
-9.34
-9.355
-9.35
-9.36
-9.38
-9.36
-9.385
-9.4
-9.41
-9.4
-9.405
-9.39
-9.38
-9.37
-9.38
-9.395
-9.405
-9.4
-9.42
-9.415
-9.425
-9.41
-9.415
-9.39
-9.39
-9.375
-9.39
-9.395
-9.4
-9.405
-9.395
-9.395
-9.395
-9.415
-9.435
-9.435
-9.43
-9.425
-9.355
-9.26
-9.14
-9.015
-8.92
-8.87
-8.845
-8.855
-8.8
-8.685
-8.47
-8.185
-7.93
-7.75
-7.715
-7.895
-8.265
-8.75
-9.27
-9.71
-10.035
-10.185
-10.26
-10.29
-10.345
-10.38
-10.46
-10.525
-10.55
-10.58
-10.565
-10.57
-10.535
-10.52
-10.47
-10.42
-10.365
-10.28
-10.175
-10.025
-9.885
-9.735
-9.63
-9.53
-9.445
-9.4
-9.385
-9.355
-9.36
-9.345
-9.35
-9.34
-9.35
-9.34
-9.33
-9.33
-9.315
-9.32
-9.295
-9.305
-9.315
-9.33
-9.34
-9.365
-9.375
-9.39
-9.395
-9.395
-9.39
-9.41
-9.42
-9.43
-9.455
-9.475
-9.475
-9.485
-9.5
-9.5
-9.53
-9.55
-9.555
-9.555
-9.535
-9.555
-9.545
-9.565
-9.57
-9.58
-9.6
-9.6
-9.61
-9.6
-9.58
-9.57
-9.555
-9.52
-9.505
-9.475
-9.46
-9.46
-9.45
-9.435
-9.445
-9.425
-9.39
-9.37
-9.35
-9.335
-9.325
-9.335
-9.34
-9.34
-9.36
-9.35
-9.36
-9.355
-9.33
-9.335
-9.31
-9.305
-9.315
-9.33
-9.35
-9.375
-9.385
-9.385
-9.385
-9.375
-9.365
-9.37
-9.35
-9.345
-9.345
-9.35
-9.365
-9.375
-9.375
-9.38
-9.385
-9.385
-9.37
-9.365
-9.375
-9.365
-9.355
-9.35
-9.37
-9.395
-9.38
-9.38
-9.375
-9.385
-9.37
-9.365
-9.36
-9.355
-9.345
-9.34
-9.345
-9.37
-9.375
-9.385
-9.375
-9.385
-9.36
-9.35
-9.335
-9.355
-9.34
-9.345
-9.375
-9.345
-9.35
-9.36
-9.36
-9.35
-9.34
-9.34
-9.33
-9.33
-9.355
-9.345
-9.35
-9.35
-9.365
-9.37
-9.355
-9.36
-9.34
-9.335
-9.325
-9.33
-9.325
-9.325
-9.345
-9.35
-9.36
-9.37
-9.365
-9.355
-9.34
-9.33
-9.325
-9.33
-9.325
-9.33
-9.345
-9.345
-9.35
-9.35
-9.345
-9.325
-9.315
-9.295
-9.26
-9.25
-9.245
-9.23
-9.23
-9.21
-9.2
-9.185
-9.165
-9.155
-9.125
-9.105
-9.1
-9.09
-9.11
-9.1
-9.11
-9.135
-9.18
-9.22
-9.235
-9.255
-9.245
-9.215
-9.19
-9.16
-9.145
-9.16
-9.165
-9.17
-9.195
-9.24
-9.265
-9.29
-9.295
-9.29
-9.29
-9.29
-9.31
-9.335
-9.365
-9.395
-9.405
-9.41
-9.425
-9.405
-9.39
-9.385
-9.375
-9.365
-9.375
-9.375
-9.38
-9.39
-9.4
-9.4
-9.405
-9.415
-9.42
-9.44
-9.465
-9.48
-9.515
-9.51
-9.475
-9.4
-9.29
-9.135
-8.995
-8.875
-8.815
-8.82
-8.81
-8.76
-8.655
-8.455
-8.2
-7.985
-7.865
-7.9
-8.08
-8.415
-8.855
-9.29
-9.645
-9.9
-10.06
-10.145
-10.21
-10.265
-10.365
-10.44
-10.515
-10.55
-10.53
-10.5
-10.48
-10.47
-10.45
-10.43
-10.415
-10.405
-10.355
-10.28
-10.175
-10.025
-9.875
-9.72
-9.575
-9.495
-9.44
-9.42
-9.435
-9.445
-9.45
-9.435
-9.415
-9.405
-9.37
-9.35
-9.325
-9.31
-9.315
-9.32
-9.335
-9.36
-9.375
-9.385
-9.4
-9.395
-9.39
-9.395
-9.385
-9.37
-9.385
-9.4
-9.395
-9.415
-9.435
-9.43
-9.455
-9.475
-9.465
-9.47
-9.49
-9.505
-9.495
-9.505
-9.515
-9.525
-9.535
-9.55
-9.54
-9.54
-9.53
-9.51
-9.52
-9.515
-9.52
-9.515
-9.505
-9.52
-9.495
-9.495
-9.505
-9.51
-9.5
-9.485
-9.46
-9.43
-9.42
-9.395
-9.38
-9.375
-9.36
-9.35
-9.34
-9.33
-9.32
-9.295
-9.28
-9.245
-9.245
-9.23
-9.22
-9.215
-9.22
-9.21
-9.205
-9.205
-9.2
-9.19
-9.18
-9.185
-9.2
-9.195
-9.185
-9.205
-9.2
-9.205
-9.2
-9.195
-9.195
-9.175
-9.17
-9.17
-9.175
-9.18
-9.18
-9.18
-9.215
-9.22
-9.215
-9.2
-9.175
-9.17
-9.155
-9.145
-9.155
-9.18
-9.2
-9.235
-9.235
-9.235
-9.23
-9.22
-9.22
-9.21
-9.2
-9.195
-9.205
-9.2
-9.205
-9.21
-9.22
-9.215
-9.215
-9.22
-9.23
-9.24
-9.235
-9.215
-9.215
-9.22
-9.225
-9.22
-9.215
-9.23
-9.225
-9.22
-9.225
-9.21
-9.195
-9.17
-9.165
-9.165
-9.15
-9.14
-9.14
-9.165
-9.13
-9.095
-9.08
-9.055
-9.02
-8.995
-9.0
-9.015
-9.01
-9.005
-9.005
-9.02
-9.025
-9.045
-9.045
-9.06
-9.065
-9.07
-9.075
-9.085
-9.105
-9.095
-9.08
-9.07
-9.065
-9.04
-9.035
-9.045
-9.07
-9.095
-9.12
-9.145
-9.17
-9.19
-9.185
-9.215
-9.225
-9.25
-9.245
-9.245
-9.245
-9.235
-9.24
-9.235
-9.245
-9.24
-9.255
-9.25
-9.25
-9.25
-9.24
-9.22
-9.21
-9.21
-9.225
-9.245
-9.27
-9.305
-9.33
-9.345
-9.375
-9.39
-9.345
-9.255
-9.13
-9.0
-8.88
-8.8
-8.78
-8.785
-8.75
-8.63
-8.43
-8.145
-7.86
-7.67
-7.635
-7.755
-8.07
-8.51
-8.98
-9.385
-9.65
-9.815
-9.915
-9.995
-10.07
-10.15
-10.235
-10.27
-10.315
-10.295
-10.285
-10.3
-10.27
-10.27
-10.25
-10.21
-10.15
-10.08
-9.95
-9.8
-9.665
-9.5
-9.4
-9.32
-9.25
-9.23
-9.21
-9.2
-9.19
-9.195
-9.17
-9.165
-9.165
-9.16
-9.17
-9.165
-9.16
-9.175
-9.175
-9.18
-9.195
-9.18
-9.18
-9.18
-9.19
-9.18
-9.19
-9.21
-9.23
-9.255
-9.26
-9.26
-9.26
-9.25
-9.28
-9.285
-9.305
-9.325
-9.325
-9.36
-9.375
-9.39
-9.395
-9.385
-9.365
-9.35
-9.335
-9.315
-9.32
-9.335
-9.345
-9.34
-9.335
-9.36
-9.365
-9.365
-9.38
-9.37
-9.325
-9.305
-9.3
-9.295
-9.3
-9.275
-9.26
-9.23
-9.205
-9.18
-9.175
-9.165
-9.125
-9.11
-9.115
-9.105
-9.085
-9.09
-9.065
-9.055
-9.075
-9.09
-9.09
-9.1
-9.105
-9.095
-9.105
-9.1
-9.09
-9.095
-9.09
-9.095
-9.115
-9.115
-9.1
-9.085
-9.075
-9.055
-9.065
-9.08
-9.085
-9.115
-9.13
-9.15
-9.165
-9.175
-9.165
-9.16
-9.155
-9.15
-9.12
-9.125
-9.12
-9.125
-9.13
-9.17
-9.18
-9.18
-9.15
-9.13
-9.15
-9.17
-9.185
-9.17
-9.165
-9.16
-9.18
-9.18
-9.175
-9.175
-9.16
-9.13
-9.125
-9.115
-9.13
-9.15
-9.155
-9.175
-9.205
-9.21
-9.2
-9.175
-9.155
-9.115
-9.06
-9.02
-9.015
-8.995
-8.97
-8.99
-8.98
-8.99
-8.97
-8.955
-8.945
-8.915
-8.905
-8.88
-8.89
-8.935
-8.94
-8.975
-8.99
-9.015
-9.055
-9.055
-9.06
-9.075
-9.085
-9.07
-9.055
-9.04
-9.025
-9.02
-9.0
-9.025
-9.06
-9.105
-9.12
-9.145
-9.155
-9.135
-9.135
-9.165
-9.175
-9.195
-9.22
-9.21
-9.215
-9.205
-9.215
-9.22
-9.23
-9.225
-9.225
-9.225
-9.225
-9.23
-9.235
-9.23
-9.245
-9.265
-9.3
-9.28
-9.255
-9.25
-9.27
-9.305
-9.35
-9.385
-9.41
-9.405
-9.345
-9.23
-9.095
-8.94
-8.815
-8.735
-8.755
-8.74
-8.705
-8.595
-8.4
-8.135
-7.87
-7.72
-7.715
-7.94
-8.355
-8.86
-9.355
-9.705
-9.935
-10.04
-10.085
-10.13
-10.21
-10.295
-10.355
-10.395
-10.405
-10.405
-10.4
-10.41
-10.4
-10.395
-10.355
-10.31
-10.24
-10.155
-10.02
-9.86
-9.69
-9.54
-9.425
-9.35
-9.29
-9.26
-9.255
-9.265
-9.245
-9.265
-9.25
-9.23
-9.24
-9.24
-9.245
-9.24
-9.25
-9.245
-9.24
-9.24
-9.235
-9.225
-9.22
-9.21
-9.225
-9.23
-9.24
-9.225
-9.215
-9.23
-9.27
-9.325
-9.385
-9.41
-9.42
-9.445
-9.425
-9.4
-9.4
-9.405
-9.415
-9.425
-9.44
-9.46
-9.5
-9.515
-9.515
-9.52
-9.51
-9.465
-9.425
-9.42
-9.42
-9.44
-9.47
-9.46
-9.435
-9.43
-9.4
-9.385
-9.375
-9.35
-9.35
-9.36
-9.345
-9.34
-9.315
-9.305
-9.315
-9.305
-9.285
-9.27
-9.235
-9.21
-9.2
-9.195
-9.19
-9.205
-9.215
-9.23
-9.255
-9.295
-9.27
-9.225
-9.2
-9.16
-9.155
-9.175
-9.21
-9.24
-9.285
-9.335
-9.36
-9.365
-9.34
-9.32
-9.27
-9.235
-9.215
-9.22
-9.215
-9.225
-9.265
-9.3
-9.33
-9.33
-9.305
-9.3
-9.305
-9.305
-9.325
-9.345
-9.385
-9.395
-9.385
-9.375
-9.365
-9.36
-9.345
-9.355
-9.385
-9.39
-9.385
-9.38
-9.38
-9.355
-9.345
-9.365
-9.355
-9.375
-9.38
-9.4
-9.405
-9.42
-9.425
-9.41
-9.405
-9.43
-9.425
-9.43
-9.415
-9.4
-9.38
-9.345
-9.365
-9.375
-9.405
-9.395
-9.37
-9.33
-9.325
-9.315
-9.32
-9.295
-9.275
-9.245
-9.205
-9.16
-9.13
-9.115
-9.12
-9.155
-9.195
-9.24
-9.28
-9.295
-9.3
-9.275
-9.25
-9.22
-9.23
-9.235
-9.265
-9.28
-9.305
-9.29
-9.295
-9.335
-9.36
-9.415
-9.45
-9.47
-9.465
-9.48
-9.49
-9.515
-9.505
-9.5
-9.515
-9.52
-9.525
-9.51
-9.485
-9.485
-9.47
-9.465
-9.465
-9.48
-9.545
-9.6
-9.63
-9.655
-9.635
-9.6
-9.565
-9.55
-9.555
-9.56
-9.555
-9.53
-9.455
-9.32
-9.155
-8.98
-8.86
-8.79
-8.79
-8.745
-8.625
-8.4
-8.155
-8.01
-7.985
-8.21
-8.665
-9.22
-9.75
-10.16
-10.415
-10.54
-10.575
-10.62
-10.665
-10.71
-10.75
-10.775
-10.795
-10.785
-10.78
-10.78
-10.75
-10.705
-10.655
-10.6
-10.54
-10.45
-10.31
-10.145
-9.98
-9.83
-9.715
-9.63
-9.58
-9.545
-9.535
-9.545
-9.53
-9.54
-9.545
-9.53
-9.51
-9.51
-9.51
-9.5
-9.475
-9.475
-9.47
-9.5
-9.52
-9.515
-9.53
-9.54
-9.555
-9.57
-9.57
-9.565
-9.555
-9.57
-9.595
-9.6
-9.62
-9.625
-9.645
-9.645
-9.685
-9.7
-9.71
-9.68
-9.66
-9.635
-9.635
-9.65
-9.66
-9.69
-9.715
-9.735
-9.75
-9.745
-9.73
-9.705
-9.69
-9.665
-9.65
-9.63
-9.615
-9.59
-9.57
-9.55
-9.555
-9.555
-9.535
-9.51
-9.5
-9.475
-9.47
-9.45
-9.435
-9.445
-9.42
-9.44
-9.455
-9.46
-9.45
-9.425
-9.42
-9.385
-9.38
-9.39
-9.425
-9.46
-9.51
-9.55
-9.59
-9.585
-9.595
-9.585
-9.57
-9.54
-9.525
-9.53
-9.56
-9.59
-9.63
-9.645
-9.675
-9.675
-9.65
-9.63
-9.64
-9.62
-9.62
-9.645
-9.645
-9.655
-9.62
-9.605
-9.605
-9.6
-9.6
-9.61
-9.625
-9.61
-9.615
-9.61
-9.635
-9.645
-9.675
-9.695
-9.695
-9.68
-9.67
-9.64
-9.62
-9.605
-9.595
-9.62
-9.635
-9.665
-9.685
-9.685
-9.68
-9.67
-9.655
-9.635
-9.62
-9.61
-9.6
-9.6
-9.595
-9.605
-9.595
-9.585
-9.575
-9.58
-9.56
-9.53
-9.5
-9.485
-9.485
-9.465
-9.46
-9.445
-9.44
-9.455
-9.47
-9.47
-9.49
-9.5
-9.525
-9.545
-9.56
-9.565
-9.555
-9.555
-9.535
-9.535
-9.52
-9.54
-9.55
-9.57
-9.6
-9.62
-9.63
-9.635
-9.645
-9.65
-9.68
-9.695
-9.73
-9.735
-9.73
-9.73
-9.73
-9.745
-9.74
-9.745
-9.75
-9.77
-9.765
-9.76
-9.79
-9.785
-9.765
-9.765
-9.75
-9.73
-9.73
-9.735
-9.75
-9.78
-9.8
-9.85
-9.9
-9.92
-9.915
-9.855
-9.74
-9.605
-9.44
-9.275
-9.155
-9.085
-9.095
-9.09
-9.055
-8.945
-8.75
-8.51
-8.28
-8.175
-8.215
-8.465
-8.895
-9.44
-9.925
-10.335
-10.565
-10.66
-10.69
-10.705
-10.725
-10.785
-10.865
-10.93
-10.96
-10.97
-10.94
-10.925
-10.91
-10.885
-10.86
-10.815
-10.75
-10.65
-10.555
-10.42
-10.27
-10.14
-10.0
-9.905
-9.82
-9.775
-9.745
-9.74
-9.725
-9.705
-9.655
-9.665
-9.665
-9.66
-9.665
-9.655
-9.64
-9.65
-9.655
-9.645
-9.635
-9.64
-9.635
-9.64
-9.66
-9.69
-9.71
-9.73
-9.74
-9.735
-9.73
-9.73
-9.72
-9.705
-9.715
-9.75
-9.78
-9.78
-9.795
-9.81
-9.81
-9.82
-9.8
-9.795
-9.785
-9.79
-9.795
-9.815
-9.81
-9.83
-9.87
-9.865
-9.865
-9.87
-9.86
-9.835
-9.825
-9.81
-9.805
-9.8
-9.8
-9.78
-9.775
-9.735
-9.715
-9.695
-9.68
-9.655
-9.625
-9.605
-9.575
-9.55
-9.54
-9.54
-9.54
-9.55
-9.545
-9.55
-9.52
-9.505
-9.495
-9.475
-9.485
-9.49
-9.5
-9.505
-9.5
-9.5
-9.49
-9.5
-9.505
-9.515
-9.52
-9.51
-9.505
-9.5
-9.485
-9.505
-9.52
-9.55
-9.56
-9.56
-9.55
-9.53
-9.515
-9.51
-9.5
-9.52
-9.52
-9.525
-9.53
-9.535
-9.56
-9.555
-9.555
-9.54
-9.51
-9.515
-9.51
-9.51
-9.525
-9.545
-9.565
-9.575
-9.595
-9.595
-9.565
-9.54
-9.51
-9.515
-9.51
-9.5
-9.505
-9.52
-9.54
-9.56
-9.56
-9.56
-9.555
-9.55
-9.53
-9.51
-9.485
-9.49
-9.475
-9.465
-9.45
-9.44
-9.435
-9.425
-9.415
-9.4
-9.355
-9.35
-9.345
-9.33
-9.305
-9.3
-9.27
-9.265
-9.27
-9.265
-9.265
-9.295
-9.315
-9.335
-9.36
-9.365
-9.385
-9.385
-9.36
-9.35
-9.335
-9.31
-9.29
-9.28
-9.315
-9.355
-9.375
-9.43
-9.46
-9.47
-9.48
-9.485
-9.495
-9.52
-9.525
-9.53
-9.535
-9.525
-9.525
-9.525
-9.505
-9.525
-9.54
-9.555
-9.57
-9.565
-9.55
-9.545
-9.535
-9.535
-9.535
-9.535
-9.545
-9.54
-9.56
-9.58
-9.605
-9.625
-9.635
-9.625
-9.575
-9.465
-9.32
-9.16
-9.02
-8.925
-8.885
-8.89
-8.88
-8.785
-8.595
-8.335
-8.1
-7.94
-7.965
-8.23
-8.71
-9.26
-9.775
-10.155
-10.39
-10.49
-10.56
-10.6
-10.64
-10.695
-10.725
-10.74
-10.735
-10.74
-10.735
-10.71
-10.665
-10.635
-10.575
-10.495
-10.385
-10.225
-10.075
-9.915
-9.77
-9.665
-9.59
-9.57
-9.545
-9.54
-9.535
-9.52
-9.505
-9.47
-9.45
-9.445
-9.45
-9.47
-9.47
-9.495
-9.495
-9.49
-9.48
-9.465
-9.47
-9.465
-9.48
-9.475
-9.48
-9.49
-9.49
-9.51
-9.535
-9.54
-9.54
-9.57
-9.58
-9.585
-9.585
-9.61
-9.595
-9.585
-9.605
-9.625
-9.635
-9.655
-9.65
-9.625
-9.615
-9.615
-9.61
-9.625
-9.65
-9.65
-9.65
-9.64
-9.635
-9.62
-9.595
-9.575
-9.565
-9.55
-9.54
-9.525
-9.5
-9.485
-9.465
-9.45
-9.435
-9.43
-9.405
-9.38
-9.365
-9.335
-9.315
-9.33
-9.315
-9.32
-9.33
-9.34
-9.335
-9.335
-9.335
-9.32
-9.33
-9.32
-9.315
-9.315
-9.33
-9.34
-9.335
-9.355
-9.345
-9.34
-9.345
-9.325
-9.325
-9.31
-9.325
-9.33
-9.32
-9.33
-9.355
-9.365
-9.375
-9.375
-9.37
-9.36
-9.355
-9.35
-9.34
-9.355
-9.375
-9.38
-9.39
-9.41
-9.405
-9.385
-9.375
-9.365
-9.365
-9.36
-9.38
-9.38
-9.37
-9.38
-9.39
-9.385
-9.38
-9.385
-9.375
-9.365
-9.37
-9.355
-9.345
-9.365
-9.35
-9.355
-9.35
-9.38
-9.355
-9.34
-9.31
-9.285
-9.245
-9.215
-9.205
-9.205
-9.205
-9.22
-9.2
-9.175
-9.17
-9.14
-9.15
-9.125
-9.09
-9.075
-9.06
-9.07
-9.075
-9.125
-9.16
-9.205
-9.25
-9.28
-9.25
-9.235
-9.185
-9.17
-9.13
-9.12
-9.11
-9.15
-9.19
-9.245
-9.26
-9.295
-9.3
-9.3
-9.285
-9.305
-9.315
-9.335
-9.35
-9.37
-9.395
-9.4
-9.405
-9.385
-9.405
-9.375
-9.365
-9.36
-9.375
-9.385
-9.405
-9.415
-9.415
-9.415
-9.41
-9.395
-9.405
-9.4
-9.405
-9.415
-9.435
-9.47
-9.48
-9.47
-9.425
-9.35
-9.225
-9.075
-8.915
-8.795
-8.745
-8.74
-8.73
-8.645
-8.47
-8.225
-7.98
-7.8
-7.765
-7.955
-8.345
-8.85
-9.38
-9.795
-10.085
-10.225
-10.285
-10.34
-10.415
-10.505
-10.56
-10.63
-10.655
-10.65
-10.645
-10.62
-10.585
-10.55
-10.52
-10.495
-10.45
-10.405
-10.295
-10.145
-9.975
-9.805
-9.65
-9.53
-9.465
-9.41
-9.38
-9.395
-9.395
-9.37
-9.35
-9.35
-9.345
-9.315
-9.305
-9.3
-9.305
-9.305
-9.3
-9.305
-9.32
-9.335
-9.345
-9.365
-9.35
-9.335
-9.33
-9.325
-9.35
-9.37
-9.38
-9.4
-9.415
-9.445
-9.44
-9.455
-9.465
-9.46
-9.45
-9.45
-9.47
-9.465
-9.48
-9.49
-9.495
-9.525
-9.52
-9.51
-9.51
-9.495
-9.485
-9.475
-9.465
-9.465
-9.46
-9.445
-9.46
-9.43
-9.415
-9.4
-9.38
-9.36
-9.335
-9.33
-9.315
-9.31
-9.31
-9.3
-9.275
-9.275
-9.275
-9.235
-9.23
-9.215
-9.21
-9.205
-9.2
-9.215
-9.225
-9.235
-9.235
-9.255
-9.25
-9.245
-9.245
-9.23
-9.245
-9.24
-9.24
-9.245
-9.24
-9.23
-9.255
-9.25
-9.285
-9.29
-9.28
-9.275
-9.26
-9.255
-9.25
-9.265
-9.26
-9.28
-9.285
-9.305
-9.325
-9.33
-9.335
-9.315
-9.295
-9.3
-9.285
-9.29
-9.29
-9.31
-9.315
-9.32
-9.335
-9.355
-9.345
-9.335
-9.345
-9.32
-9.325
-9.32
-9.315
-9.33
-9.34
-9.35
-9.355
-9.325
-9.335
-9.325
-9.31
-9.31
-9.295
-9.275
-9.26
-9.27
-9.275
-9.265
-9.23
-9.23
-9.2
-9.175
-9.15
-9.14
-9.095
-9.085
-9.085
-9.09
-9.085
-9.105
-9.12
-9.125
-9.145
-9.15
-9.175
-9.185
-9.205
-9.2
-9.205
-9.195
-9.17
-9.17
-9.16
-9.17
-9.165
-9.195
-9.22
-9.245
-9.275
-9.285
-9.305
-9.33
-9.35
-9.375
-9.385
-9.385
-9.385
-9.37
-9.365
-9.35
-9.34
-9.35
-9.37
-9.37
-9.39
-9.395
-9.39
-9.375
-9.375
-9.355
-9.345
-9.35
-9.325
-9.325
-9.335
-9.36
-9.385
-9.405
-9.435
-9.475
-9.475
-9.445
-9.365
-9.25
-9.11
-8.99
-8.87
-8.805
-8.79
-8.79
-8.76
-8.63
-8.38
-8.09
-7.84
-7.68
-7.7
-7.93
-8.355
-8.875
-9.365
-9.73
-9.955
-10.065
-10.105
-10.15
-10.215
-10.305
-10.375
-10.43
-10.44
-10.43
-10.4
-10.395
-10.37
-10.34
-10.305
-10.265
-10.22
-10.135
-10.025
-9.865
-9.69
-9.525
-9.41
-9.305
-9.25
-9.205
-9.195
-9.2
-9.19
-9.175
-9.155
-9.155
-9.14
-9.125
-9.12
-9.12
-9.125
-9.135
-9.14
-9.14
-9.13
-9.135
-9.13
-9.135
-9.13
-9.155
-9.15
-9.17
-9.185
-9.175
-9.185
-9.205
-9.2
-9.21
-9.23
-9.235
-9.235
-9.24
-9.245
-9.255
-9.285
-9.27
-9.255
-9.255
-9.26
-9.265
-9.275
-9.275
-9.265
-9.27
-9.28
-9.295
-9.305
-9.29
-9.275
-9.26
-9.235
-9.23
-9.205
-9.18
-9.155
-9.15
-9.14
-9.13
-9.105
-9.085
-9.045
-9.01
-9.015
-8.99
-8.97
-8.95
-8.945
-8.955
-8.96
-8.965
-8.96
-8.95
-8.97
-8.95
-8.945
-8.94
-8.925
-8.9
-8.905
-8.915
-8.94
-8.935
-8.94
-8.94
-8.93
-8.925
-8.915
-8.92
-8.905
-8.92
-8.91
-8.915
-8.94
-8.955
-8.96
-8.965
-8.98
-8.955
-8.93
-8.925
-8.9
-8.905
-8.925
-8.95
-8.955
-8.955
-8.965
-8.96
-8.96
-8.985
-8.965
-8.955
-8.945
-8.94
-8.935
-8.935
-8.945
-8.96
-8.975
-8.98
-8.985
-8.98
-8.975
-8.97
-8.965
-8.95
-8.945
-8.96
-8.96
-8.96
-8.95
-8.95
-8.94
-8.935
-8.915
-8.905
-8.89
-8.86
-8.87
-8.865
-8.85
-8.84
-8.825
-8.79
-8.775
-8.765
-8.74
-8.735
-8.715
-8.73
-8.71
-8.73
-8.745
-8.76
-8.8
-8.82
-8.83
-8.85
-8.845
-8.85
-8.83
-8.8
-8.775
-8.76
-8.755
-8.785
-8.81
-8.855
-8.89
-8.9
-8.91
-8.91
-8.91
-8.915
-8.93
-8.955
-8.965
-8.99
-9.01
-9.0
-9.0
-9.01
-8.99
-9.0
-9.0
-9.005
-9.005
-9.01
-9.01
-9.01
-8.995
-9.01
-9.0
-8.995
-8.995
-8.99
-9.005
-9.025
-9.035
-9.065
-9.1
-9.12
-9.14
-9.175
-9.13
-9.06
-8.965
-8.835
-8.695
-8.61
-8.58
-8.59
-8.585
-8.525
-8.365
-8.125
-7.83
-7.57
-7.405
-7.43
-7.66
-8.05
-8.485
-8.91
-9.26
-9.475
-9.58
-9.655
-9.74
-9.84
-9.915
-9.985
-10.045
-10.1
-10.085
-10.065
-10.065
-10.065
-10.045
-10.03
-10.005
-9.97
-9.93
-9.84
-9.725
-9.57
-9.395
-9.275
-9.14
-9.08
-9.04
-9.01
-9.005
-8.995
-8.98
-8.945
-8.935
-8.905
-8.905
-8.925
-8.92
-8.95
-8.955
-8.96
-8.97
-8.955
-8.945
-8.945
-8.945
-8.985
-8.98
-8.99
-8.99
-9.0
-9.0
-9.02
-9.04
-9.04
-9.03
-9.035
-9.045
-9.06
-9.065
-9.095
-9.11
-9.12
-9.125
-9.135
-9.14
-9.135
-9.13
-9.135
-9.135
-9.165
-9.165
-9.16
-9.165
-9.17
-9.18
-9.17
-9.17
-9.145
-9.15
-9.11
-9.11
-9.085
-9.08
-9.06
-9.065
-9.08
-9.06
-9.055
-9.03
-8.995
-8.97
-8.955
-8.93
-8.91
-8.905
-8.905
-8.905
-8.905
-8.915
-8.89
-8.9
-8.885
-8.88
-8.885
-8.87
-8.865
-8.865
-8.865
-8.87
-8.87
-8.88
-8.88
-8.88
-8.875
-8.88
-8.88
-8.87
-8.88
-8.88
-8.89
-8.89
-8.91
-8.925
-8.93
-8.905
-8.89
-8.875
-8.865
-8.865
-8.855
-8.85
-8.855
-8.86
-8.875
-8.88
-8.885
-8.87
-8.865
-8.86
-8.85
-8.845
-8.825
-8.81
-8.825
-8.845
-8.87
-8.89
-8.915
-8.935
-8.925
-8.92
-8.9
-8.915
-8.915
-8.885
-8.905
-8.915
-8.95
-8.96
-8.975
-8.99
-8.995
-8.97
-8.95
-8.94
-8.955
-8.955
-8.985
-9.01
-9.045
-9.05
-9.05
-9.04
-9.025
-9.01
-8.99
-8.995
-8.985
-8.995
-9.015
-9.005
-9.025
-9.02
-9.025
-9.03
-9.03
-9.02
-9.02
-9.02
-9.01
-9.015
-9.01
-9.025
-9.03
-9.045
-9.03
-9.02
-9.015
-9.01
-9.03
-9.03
-9.06
-9.1
-9.155
-9.205
-9.235
-9.175
-9.1
-8.985
-8.885
-8.76
-8.69
-8.655
-8.59
-8.5
-8.305
-8.045
-7.755
-7.535
-7.46
-7.55
-7.84
-8.255
-8.705
-9.1
-9.385
-9.545
-9.64
-9.715
-9.81
-9.925
-10.02
-10.105
-10.16
-10.155
-10.15
-10.14
-10.145
-10.135
-10.125
-10.115
-10.085
-10.05
-9.955
-9.83
-9.67
-9.49
-9.33
-9.205
-9.135
-9.075
-9.06
-9.065
-9.055
-9.065
-9.05
-9.03
-9.015
-8.995
-9.005
-9.015
-9.01
-9.015
-9.035
-9.04
-9.05
-9.045
-9.055
-9.05
-9.05
-9.05
-9.075
-9.08
-9.085
-9.1
-9.115
-9.125
-9.145
-9.16
-9.185
-9.18
-9.18
-9.185
-9.195
-9.2
-9.22
-9.25
-9.265
-9.27
-9.265
-9.275
-9.29
-9.275
-9.295
-9.265
-9.265
-9.23
-9.255
-9.24
-9.25
-9.25
-9.245
-9.24
-9.23
-9.215
-9.18
-9.155
-9.14
-9.125
-9.115
-9.1
-9.07
-9.07
-9.06
-9.055
-9.05
-9.035
-9.03
-9.03
-9.005
-9.005
-9.0
-9.015
-9.015
-9.03
-9.025
-9.025
-9.025
-9.01
-9.005
-8.98
-8.985
-8.985
-9.005
-9.015
-9.015
-9.045
-9.06
-9.045
-9.04
-9.035
-9.035
-9.01
-9.02
-9.025
-9.04
-9.035
-9.055
-9.065
-9.08
-9.095
-9.095
-9.105
-9.085
-9.08
-9.08
-9.055
-9.07
-9.06
-9.08
-9.09
-9.09
-9.1
-9.105
-9.1
-9.09
-9.08
-9.08
-9.06
-9.075
-9.07
-9.08
-9.08
-9.085
-9.09
-9.085
-9.11
-9.1
-9.095
-9.09
-9.085
-9.09
-9.085
-9.095
-9.09
-9.09
-9.095
-9.1
-9.095
-9.085
-9.09
-9.1
-9.07
-9.085
-9.075
-9.09
-9.085
-9.105
-9.09
-9.105
-9.115
-9.1
-9.09
-9.08
-9.055
-9.075
-9.08
-9.07
-9.09
-9.075
-9.075
-9.065
-9.03
-9.015
-9.015
-8.98
-8.97
-8.94
-8.94
-8.93
-8.92
-8.915
-8.915
-8.895
-8.89
-8.885
-8.875
-8.865
-8.88
-8.905
-8.935
-8.965
-9.01
-9.03
-9.03
-9.045
-9.015
-9.0
-8.96
-8.955
-8.925
-8.93
-8.95
-9.0
-9.05
-9.095
-9.12
-9.16
-9.16
-9.14
-9.135
-9.16
-9.175
-9.195
-9.21
-9.23
-9.26
-9.255
-9.255
-9.24
-9.245
-9.215
-9.21
-9.21
-9.215
-9.225
-9.23
-9.23
-9.245
-9.255
-9.26
-9.27
-9.285
-9.295
-9.325
-9.35
-9.37
-9.405
-9.4
-9.335
-9.235
-9.11
-9.0
-8.885
-8.81
-8.82
-8.805
-8.75
-8.595
-8.375
-8.095
-7.84
-7.685
-7.71
-7.94
-8.35
-8.855
-9.32
-9.65
-9.86
-9.98
-10.065
-10.14
-10.245
-10.33
-10.4
-10.44
-10.455
-10.455
-10.445
-10.435
-10.415
-10.39
-10.325
-10.25
-10.155
-10.02
-9.89
-9.715
-9.57
-9.45
-9.37
-9.31
-9.285
-9.265
-9.275
-9.275
-9.27
-9.26
-9.255
-9.25
-9.25
-9.25
-9.24
-9.22
-9.22
-9.225
-9.23
-9.235
-9.25
-9.27
-9.27
-9.285
-9.3
-9.3
-9.305
-9.315
-9.305
-9.3
-9.325
-9.35
-9.36
-9.375
-9.42
-9.415
-9.42
-9.445
-9.44
-9.435
-9.425
-9.45
-9.455
-9.46
-9.475
-9.485
-9.485
-9.48
-9.48
-9.46
-9.465
-9.435
-9.425
-9.405
-9.41
-9.405
-9.415
-9.42
-9.405
-9.39
-9.375
-9.355
-9.345
-9.315
-9.295
-9.27
-9.255
-9.23
-9.225
-9.22
-9.215
-9.2
-9.2
-9.195
-9.18
-9.17
-9.16
-9.17
-9.175
-9.165
-9.16
-9.15
-9.17
-9.17
-9.165
-9.175
-9.185
-9.19
-9.17
-9.175
-9.18
-9.185
-9.19
-9.205
-9.23
-9.245
-9.25
-9.24
-9.22
-9.22
-9.21
-9.205
-9.205
-9.22
-9.23
-9.235
-9.235
-9.275
-9.28
-9.265
-9.26
-9.265
-9.275
-9.26
-9.26
-9.26
-9.275
-9.275
-9.29
-9.3
-9.305
-9.305
-9.305
-9.3
-9.3
-9.285
-9.29
-9.285
-9.285
-9.29
-9.3
-9.315
-9.33
-9.32
-9.3
-9.295
-9.285
-9.29
-9.285
-9.3
-9.3
-9.315
-9.3
-9.315
-9.29
-9.27
-9.25
-9.215
-9.18
-9.17
-9.16
-9.15
-9.15
-9.135
-9.14
-9.11
-9.11
-9.095
-9.08
-9.06
-9.06
-9.035
-9.035
-9.055
-9.09
-9.12
-9.15
-9.19
-9.215
-9.23
-9.205
-9.2
-9.18
-9.145
-9.125
-9.105
-9.105
-9.125
-9.16
-9.2
-9.25
-9.275
-9.29
-9.31
-9.29
-9.3
-9.32
-9.335
-9.35
-9.37
-9.385
-9.385
-9.39
-9.405
-9.385
-9.39
-9.355
-9.35
-9.36
-9.37
-9.365
-9.365
-9.385
-9.39
-9.4
-9.39
-9.39
-9.39
-9.39
-9.41
-9.44
-9.49
-9.53
-9.565
-9.535
-9.46
-9.355
-9.205
-9.07
-8.97
-8.925
-8.935
-8.895
-8.785
-8.6
-8.33
-8.05
-7.85
-7.83
-7.995
-8.345
-8.825
-9.315
-9.71
-9.99
-10.155
-10.255
-10.335
-10.405
-10.475
-10.565
-10.595
-10.61
-10.595
-10.59
-10.57
-10.555
-10.535
-10.515
-10.495
-10.465
-10.36
-10.26
-10.09
-9.9
-9.705
-9.56
-9.45
-9.41
-9.39
-9.4
-9.415
-9.425
-9.415
-9.395
-9.385
-9.355
-9.34
-9.33
-9.305
-9.315
-9.325
-9.34
-9.35
-9.36
-9.355
-9.36
-9.365
-9.36
-9.385
-9.375
-9.41
-9.415
-9.43
-9.455
-9.47
-9.485
-9.495
-9.51
-9.52
-9.52
-9.52
-9.525
-9.525
-9.53
-9.53
-9.545
-9.555
-9.56
-9.56
-9.58
-9.58
-9.565
-9.55
-9.54
-9.525
-9.545
-9.555
-9.56
-9.57
-9.56
-9.54
-9.535
-9.515
-9.48
-9.445
-9.44
-9.41
-9.41
-9.39
-9.375
-9.37
-9.345
-9.345
-9.33
-9.315
-9.3
-9.285
-9.26
-9.255
-9.26
-9.27
-9.285
-9.29
-9.28
-9.29
-9.28
-9.26
-9.245
-9.24
-9.215
-9.225
-9.24
-9.25
-9.265
-9.285
-9.29
-9.285
-9.31
-9.32
-9.305
-9.3
-9.29
-9.28
-9.28
-9.29
-9.315
-9.325
-9.34
-9.345
-9.34
-9.36
-9.345
-9.325
-9.33
-9.325
-9.345
-9.35
-9.36
-9.365
-9.365
-9.36
-9.36
-9.37
-9.34
-9.34
-9.335
-9.32
-9.32
-9.32
-9.32
-9.335
-9.365
-9.375
-9.38
-9.375
-9.375
-9.36
-9.335
-9.335
-9.345
-9.34
-9.33
-9.355
-9.37
-9.37
-9.355
-9.365
-9.365
-9.365
-9.355
-9.325
-9.325
-9.32
-9.3
-9.28
-9.265
-9.245
-9.235
-9.225
-9.21
-9.195
-9.17
-9.15
-9.14
-9.135
-9.125
-9.13
-9.13
-9.115
-9.12
-9.115
-9.12
-9.135
-9.165
-9.18
-9.21
-9.235
-9.25
-9.25
-9.235
-9.225
-9.215
-9.195
-9.17
-9.155
-9.185
-9.215
-9.245
-9.28
-9.305
-9.33
-9.345
-9.335
-9.345
-9.36
-9.375
-9.38
-9.39
-9.39
-9.41
-9.405
-9.42
-9.415
-9.41
-9.405
-9.425
-9.425
-9.405
-9.4
-9.395
-9.385
-9.395
-9.395
-9.41
-9.415
-9.425
-9.415
-9.45
-9.44
-9.44
-9.45
-9.465
-9.49
-9.53
-9.54
-9.52
-9.485
-9.41
-9.295
-9.185
-9.06
-8.99
-8.96
-8.95
-8.93
-8.85
-8.675
-8.425
-8.135
-7.875
-7.745
-7.775
-8.0
-8.38
-8.845
-9.295
-9.63
-9.855
-9.985
-10.065
-10.16
-10.26
-10.36
-10.455
-10.51
-10.515
-10.51
-10.485
-10.46
-10.475
-10.455
-10.455
-10.445
-10.41
-10.35
-10.26
-10.115
-9.925
-9.745
-9.595
-9.48
-9.43
-9.385
-9.37
-9.38
-9.39
-9.4
-9.395
-9.36
-9.33
-9.31
-9.29
-9.285
-9.295
-9.285
-9.285
-9.285
-9.305
-9.315
-9.33
-9.34
-9.345
-9.3
-9.3
-9.31
-9.325
-9.345
-9.365
-9.385
-9.4
-9.4
-9.415
-9.435
-9.415
-9.425
-9.435
-9.415
-9.43
-9.435
-9.465
-9.475
-9.5
-9.505
-9.51
-9.52
-9.52
-9.5
-9.51
-9.49
-9.495
-9.51
-9.51
-9.52
-9.505
-9.505
-9.49
-9.485
-9.47
-9.45
-9.445
-9.42
-9.4
-9.375
-9.37
-9.365
-9.35
-9.34
-9.315
-9.3
-9.3
-9.29
-9.255
-9.255
-9.23
-9.215
-9.2
-9.21
-9.21
-9.2
-9.225
-9.215
-9.195
-9.165
-9.165
-9.15
-9.155
-9.165
-9.165
-9.18
-9.2
-9.2
-9.2
-9.195
-9.205
-9.19
-9.175
-9.155
-9.165
-9.175
-9.19
-9.215
-9.22
-9.22
-9.235
-9.25
-9.235
-9.225
-9.2
-9.2
-9.19
-9.21
-9.22
-9.215
-9.23
-9.235
-9.245
-9.25
-9.255
-9.24
-9.26
-9.255
-9.265
-9.26
-9.265
-9.26
-9.255
-9.25
-9.25
-9.25
-9.26
-9.25
-9.245
-9.235
-9.195
-9.13
-9.0
-8.98
-8.96
-8.91
-8.705
-8.55
-8.44
-8.295
-8.16
-8.055
-7.955
-7.95
-7.97
-8.015
-8.08
-8.23
-8.39
-8.56
-8.805
-9.07
-9.345
-9.665
-10.02
-10.425
-10.72
-10.97
-11.22
-11.36
-11.5
-11.595
-11.685
-11.655
-11.545
-11.58
-11.49
-11.475
-11.445
-11.39
-11.395
-11.48
-11.43
-11.355
-11.28
-11.32
-11.32
-11.33
-11.36
-11.315
-11.39
-11.6
-11.925
-11.855
-11.67
-11.56
-11.735
-11.915
-11.92
-11.64
-11.62
-11.88
-11.98
-11.985
-11.905
-11.675
-11.635
-11.68
-11.805
-11.945
-12.045
-12.03
-12.115
-12.155
-12.14
-12.065
-12.065
-12.135
-12.46
-12.61
-12.705
-12.765
-12.675
-12.425
-12.08
-12.025
-12.045
-12.145
-12.215
-12.345
-12.42
-12.245
-12.04
-11.725
-11.39
-11.035
-10.73
-10.515
-10.51
-10.81
-11.285
-11.765
-12.22
-12.595
-12.855
-13.05
-13.21
-13.29
-13.22
-13.08
-12.88
-12.795
-12.635
-12.45
-12.215
-11.93
-11.655
-11.36
-11.155
-10.97
-10.85
-10.7
-10.46
-10.16
-9.95
-9.79
-9.745
-9.915
-10.065
-10.225
-10.41
-10.525
-10.6
-10.705
-10.875
-10.93
-10.945
-10.965
-11.03
-11.115
-11.18
-11.15
-11.12
-11.105
-11.065
-11.095
-11.165
-11.04
-10.92
-10.795
-10.725
-10.66
-10.615
-10.655
-10.665
-10.69
-10.705
-10.635
-10.63
-10.695
-10.79
-10.915
-11.03
-11.135
-11.21
-11.285
-11.385
-11.4
-11.43
-11.47
-11.49
-11.51
-11.485
-11.455
-11.445
-11.45
-11.415
-11.31
-11.225
-11.205
-11.295
-11.325
-11.315
-11.26
-11.225
-11.255
-11.235
-11.215
-11.18
-11.185
-11.25
-11.27
-11.25
-11.35
-11.395
-11.385
-11.385
-11.43
-11.48
-11.475
-11.47
-11.505
-11.525
-11.525
-11.575
-11.645
-11.655
-11.675
-11.71
-11.705
-11.745
-11.74
-11.725
-11.68
-11.67
-11.66
-11.725
-11.72
-11.67
-11.65
-11.61
-11.65
-11.69
-11.685
-11.635
-11.625
-11.63
-11.615
-11.615
-11.555
-11.53
-11.525
-11.445
-11.435
-11.455
-11.425
-11.45
-11.475
-11.42
-11.36
-11.345
-11.29
-11.28
-11.3
-11.255
-11.32
-11.35
-11.335
-11.3
-11.27
-11.25
-11.24
-11.215
-11.215
-11.24
-11.175
-11.135
-11.13
-11.11
-11.065
-11.035
-10.995
-10.89
-10.775
-10.71
-10.58
-10.505
-10.445
-10.445
-10.475
-10.465
-10.45
-10.345
-10.225
-10.11
-10.0
-9.955
-9.925
-9.925
-9.9
-9.885
-9.955
-9.95
-9.9
-9.85
-9.68
-9.555
-9.535
-9.59
-9.66
-9.7
-9.63
-9.67
-9.75
-9.715
-9.73
-9.685
-9.52
-9.35
-9.225
-9.145
-9.26
-9.325
-9.39
-9.42
-9.465
-9.52
-9.58
-9.58
-9.57
-9.665
-9.685
-9.705
-9.755
-9.78
-9.8
-9.78
-9.67
-9.595
-9.5
-9.37
-9.255
-9.155
-9.21
-8.86
-8.65
-8.435
-8.325
-8.29
-8.28
-8.295
-8.35
-8.365
-8.335
-8.325
-8.38
-8.515
-8.64
-8.8
-8.995
-9.17
-9.36
-9.53
-9.61
-9.6
-9.555
-9.45
-9.35
-9.28
-9.215
-9.155
-9.095
-8.89
-8.645
-8.315
-8.025
-7.87
-7.745
-7.725
-8.3
-7.52
-7.355
-7.19
-7.13
-7.03
-6.915
-6.805
-6.765
-6.69
-6.595
-6.285
-5.915
-5.635
-5.35
-5.085
-4.845
-4.68
-4.52
-4.385
-4.28
-4.26
-4.295
-4.31
-4.345
-4.395
-4.5
-4.66
-4.82
-4.985
-5.225
-5.43
-5.655
-5.95
-6.23
-6.5
-6.34
-7.09
-7.37
-7.62
-7.84
-8.0
-8.115
-8.195
-8.295
-8.43
-8.625
-8.63
-8.575
-8.435
-8.525
-8.555
-8.53
-8.63
-8.685
-8.72
-8.66
-8.655
-8.68
-8.78
-8.85
-8.84
-8.72
-8.835
-8.97
-9.095
-8.965
-8.83
-8.735
-8.83
-8.825
-8.805
-8.825
-8.79
-8.79
-8.73
-8.685
-8.655
-8.64
-8.805
-8.925
-9.0
-9.015
-9.095
-9.205
-9.31
-9.575
-9.775
-9.945
-10.0
-10.09
-10.2
-10.295
-10.205
-10.06
-9.975
-10.045
-10.115
-10.085
-10.04
-10.005
-9.965
-9.955
-10.07
-10.225
-10.33
-10.315
-10.305
-10.305
-10.33
-10.225
-10.13
-10.235
-10.31
-10.34
-10.275
-10.205
-10.135
-10.085
-9.96
-9.77
-9.525
-9.255
-9.01
-8.82
-8.595
-8.415
-8.225
-7.91
-7.65
-7.435
-7.3
-7.16
-7.0
-6.795
-6.365
-6.075
-5.91
-5.975
-6.32
-6.735
-7.04
-7.34
-7.585
-7.52
-7.965
-8.115
-8.28
-8.42
-8.515
-8.595
-8.63
-8.615
-8.56
-8.48
-8.425
-8.38
-8.315
-8.185
-8.105
-8.025
-7.92
-7.905
-7.93
-8.045
-8.07
-8.075
-8.17
-8.24
-8.345
-8.435
-8.565
-8.68
-8.775
-8.825
-8.895
-8.96
-8.98
-8.925
-8.805
-8.82
-8.61
-8.55
-8.5
-8.41
-8.38
-8.375
-8.41
-8.47
-8.53
-8.58
-8.64
-8.66
-8.695
-8.85
-8.995
-9.165
-9.29
-9.43
-9.555
-9.72
-9.75
-9.82
-9.855
-9.89
-9.945
-9.99
-10.025
-10.135
-10.24
-10.3
-10.35
-10.39
-10.405
-10.435
-10.475
-10.45
-10.545
-10.54
-10.51
-10.475
-10.48
-10.52
-10.495
-10.475
-10.495
-10.575
-10.66
-10.775
-10.955
-11.0
-11.045
-11.06
-10.965
-10.88
-10.865
-10.96
-10.915
-10.85
-10.86
-10.84
-10.825
-10.8
-10.815
-10.8
-10.75
-10.655
-10.53
-10.41
-10.295
-10.185
-10.15
-10.135
-10.065
-10.005
-9.885
-9.68
-9.395
-9.065
-8.88
-8.8
-8.91
-9.2
-9.59
-10.015
-10.375
-10.74
-10.985
-11.145
-11.205
-11.25
-11.305
-11.275
-11.265
-11.255
-11.255
-11.26
-11.27
-11.225
-11.165
-11.12
-11.09
-10.98
-10.82
-10.63
-10.43
-10.255
-10.15
-10.065
-9.88
-9.78
-9.67
-9.555
-9.57
-9.64
-9.69
-9.735
-9.8
-9.78
-9.6
-9.395
-9.21
-9.345
-9.505
-9.66
-9.585
-9.555
-9.55
-9.62
-9.585
-9.5
-9.46
-9.44
-9.515
-9.615
-9.645
-9.725
-9.865
-9.95
-10.07
-10.16
-10.2
-10.195
-10.15
-10.15
-10.06
-9.975
-9.85
-9.745
-9.675
-9.6
-9.535
-9.495
-9.415
-9.27
-9.225
-9.17
-9.13
-8.985
-8.88
-8.825
-8.75
-8.615
-8.46
-8.235
-8.07
-7.99
-8.075
-8.11
-8.105
-8.12
-8.1
-8.065
-8.02
-7.935
-7.81
-7.715
-7.695
-7.66
-7.585
-7.605
-7.44
-7.3
-7.1
-6.51
-5.61
-4.67
-4.015
-3.695
-3.415
-3.21
-3.13
-3.125
-3.26
-3.525
-3.88
-4.195
-4.295
-4.34
-4.335
-4.42
-4.425
-4.385
-4.19
-3.98
-3.785
-3.63
-3.46
-3.32
-3.18
-3.2
-3.22
-3.31
-3.48
-3.735
-3.96
-3.85
-4.445
-4.72
-5.03
-5.345
-5.675
-6.02
-6.4
-6.74
-7.03
-7.295
-7.515
-7.745
-7.91
-8.03
-8.17
-8.29
-8.305
-8.365
-8.485
-8.655
-8.645
-8.59
-8.54
-8.495
-8.49
-8.56
-8.76
-8.8
-8.73
-8.63
-8.555
-8.485
-8.405
-8.505
-8.56
-8.565
-8.87
-9.07
-9.13
-8.76
-8.645
-8.76
-9.02
-9.06
-9.02
-9.035
-9.04
-9.035
-9.005
-8.91
-9.075
-9.435
-9.615
-9.65
-9.565
-9.455
-9.51
-9.645
-9.855
-10.11
-10.28
-10.43
-10.575
-10.645
-10.675
-10.78
-10.745
-10.685
-10.7
-10.97
-11.205
-11.12
-11.32
-11.215
-11.085
-10.88
-10.735
-10.64
-10.715
-10.885
-11.005
-10.99
-11.005
-10.945
-10.775
-10.565
-10.32
-10.07
-9.785
-9.545
-9.32
-9.07
-8.77
-8.54
-8.455
-8.105
-7.62
-7.04
-6.615
-6.36
-6.245
-6.25
-6.505
-6.92
-7.39
-7.695
-7.95
-7.855
-8.47
-8.715
-8.885
-9.015
-9.13
-9.24
-9.255
-9.21
-9.08
-8.9
-8.695
-8.475
-8.3
-8.285
-8.305
-8.335
-8.29
-8.185
-7.98
-7.69
-7.37
-7.1
-7.065
-7.285
-7.625
-8.04
-8.555
-9.17
-9.71
-10.26
-10.56
-10.78
-10.945
-11.02
-11.075
-11.155
-11.33
-11.4
-11.385
-11.29
-11.24
-11.27
-11.225
-11.14
-11.055
-10.985
-10.915
-10.82
-10.72
-10.595
-10.465
-10.375
-10.345
-10.355
-10.4
-10.56
-10.725
-10.8
-10.78
-10.785
-10.815
-10.88
-11.135
-11.3
-11.405
-11.345
-11.42
-11.52
-11.525
-11.58
-11.61
-11.595
-11.55
-11.57
-11.63
-11.76
-11.805
-11.795
-11.83
-11.895
-11.95
-11.92
-11.9
-11.84
-11.8
-11.95
-12.03
-12.065
-12.03
-12.075
-12.095
-12.095
-12.09
-12.055
-12.025
-12.01
-12.02
-11.995
-12.07
-12.03
-11.975
-11.915
-11.87
-11.77
-11.62
-11.52
-11.435
-11.435
-11.34
-11.31
-11.25
-11.31
-11.335
-11.335
-11.315
-11.355
-11.445
-11.595
-11.815
-12.02
-12.19
-12.15
-12.07
-11.91
-11.79
-11.695
-11.65
-11.645
-11.68
-11.715
-11.69
-11.635
-11.58
-11.495
-11.51
-11.485
-11.44
-11.45
-11.48
-11.51
-11.505
-11.425
-11.35
-11.365
-11.23
-11.215
-11.165
-11.115
-11.12
-11.175
-11.225
-11.24
-11.25
-11.3
-11.33
-11.28
-11.17
-11.16
-11.185
-11.14
-11.2
-11.235
-11.275
-11.27
-11.28
-11.24
-11.21
-11.24
-11.3
-11.4
-11.44
-11.49
-11.545
-11.51
-11.435
-11.285
-11.095
-10.97
-10.845
-10.905
-10.5
-10.395
-10.35
-10.425
-10.485
-10.555
-10.695
-10.805
-10.855
-10.855
-10.9
-10.9
-10.885
-10.9
-10.845
-10.725
-10.505
-10.355
-10.23
-10.15
-10.17
-10.21
-10.23
-10.22
-10.22
-10.205
-10.135
-10.1
-10.065
-10.045
-9.94
-9.855
-9.85
-9.855
-9.84
-9.89
-9.525
-9.245
-8.885
-8.055
-6.745
-5.325
-4.345
-3.69
-3.095
-2.475
-1.99
-1.72
-1.66
-2.02
-2.41
-2.81
-3.07
-3.25
-3.375
-3.51
-3.68
-3.75
-3.73
-3.745
-3.78
-3.74
-3.81
-3.81
-3.775
-3.825
-3.925
-4.06
-4.185
-4.425
-4.66
-4.56
-5.17
-5.405
-5.67
-6.01
-6.39
-6.755
-7.045
-7.375
-7.68
-7.925
-8.145
-8.35
-8.525
-8.67
-8.755
-8.86
-8.975
-9.005
-8.965
-8.9
-8.805
-8.67
-8.51
-8.355
-8.26
-8.235
-8.315
-8.35
-8.285
-8.09
-7.84
-7.625
-7.455
-7.405
-7.62
-8.05
-8.77
-9.325
-9.645
-9.965
-10.16
-10.27
-10.345
-10.34
-10.285
-10.23
-10.3
-10.38
-10.47
-10.735
-10.845
-10.86
-10.62
-10.63
-10.73
-10.875
-11.02
-11.125
-11.21
-11.23
-11.255
-11.3
-11.415
-11.445
-11.405
-11.35
-11.28
-11.205
-11.07
-11.175
-11.285
-11.235
-11.195
-10.985
-10.87
-10.76
-10.745
-10.84
-11.335
-11.555
-11.625
-11.625
-11.45
-11.07
-10.48
-10.055
-10.11
-10.54
-10.83
-11.135
-11.38
-11.475
-11.245
-10.895
-10.53
-10.33
-10.205
-10.085
-9.755
-9.495
-9.26
-9.175
-8.94
-8.685
-8.465
-8.49
-8.58
-8.535
-8.845
-9.145
-9.48
-9.59
-9.765
-9.93
-10.155
-10.37
-10.5
-10.45
-10.31
-10.185
-10.065
-10.07
-10.055
-10.01
-10.035
-10.11
-10.19
-10.17
-10.145
-10.12
-10.18
-10.115
-10.01
-9.87
-9.865
-9.825
-9.795
-9.78
-9.76
-9.815
-10.01
-10.19
-10.365
-10.32
-10.52
-10.58
-10.675
-10.71
-10.76
-10.82
-10.875
-10.915
-10.955
-11.035
-11.055
-11.09
-11.14
-11.21
-11.27
-11.355
-11.43
-11.515
-11.58
-11.705
-11.75
-11.85
-12.015
-12.175
-12.245
-12.29
-12.395
-12.48
-12.52
-12.555
-12.595
-12.625
-12.66
-12.665
-12.66
-12.665
-12.705
-12.725
-12.7
-12.7
-12.745
-12.825
-12.835
-12.79
-12.75
-12.74
-12.725
-12.735
-12.765
-12.815
-12.83
-12.88
-12.905
-12.875
-12.85
-12.83
-12.775
-12.775
-12.75
-12.725
-12.695
-12.67
-12.655
-12.65
-12.615
-12.585
-12.51
-12.42
-12.33
-12.285
-12.235
-12.215
-12.305
-12.37
-12.425
-12.51
-12.55
-12.555
-12.55
-12.6
-12.645
-12.685
-12.76
-12.84
-12.895
-12.9
-12.955
-12.98
-13.015
-13.105
-13.18
-13.135
-13.15
-13.155
-13.115
-13.055
-12.985
-12.895
-12.81
-12.74
-12.66
-12.65
-12.645
-12.625
-12.525
-12.515
-12.475
-12.535
-12.335
-12.28
-12.26
-12.26
-12.265
-12.31
-12.335
-12.31
-12.295
-12.345
-12.375
-12.405
-12.31
-12.28
-12.27
-12.255
-12.27
-12.215
-12.195
-12.26
-12.285
-12.37
-12.615
-12.685
-12.66
-12.565
-12.62
-12.655
-12.66
-12.695
-12.825
-12.945
-13.005
-12.92
-12.8
-12.62
-12.58
-12.51
-12.47
-12.37
-12.265
-12.045
-11.715
-11.225
-10.75
-10.32
-10.04
-10.065
-10.355
-10.94
-11.515
-11.975
-12.3
-12.535
-12.73
-12.88
-13.05
-13.18
-13.295
-13.415
-13.46
-13.405
-13.395
-13.325
-13.25
-13.21
-13.105
-12.985
-12.87
-12.7
-12.42
-12.325
-11.765
-11.415
-11.06
-10.37
-9.555
-8.78
-8.215
-7.805
-7.465
-7.135
-7.08
-7.11
-7.215
-7.5
-7.76
-8.0
-8.1
-8.15
-8.215
-8.28
-8.35
-8.405
-8.395
-8.31
-8.225
-8.095
-8.03
-7.875
-7.725
-7.58
-7.545
-7.525
-7.515
-7.515
-7.56
-7.54
-7.82
-7.995
-8.18
-8.435
-8.705
-9.0
-9.235
-9.445
-9.71
-9.97
-10.275
-10.58
-10.86
-11.135
-11.285
-11.43
-11.525
-11.6
-11.645
-11.635
-11.715
-11.77
-11.795
-11.85
-11.925
-12.045
-12.075
-12.065
-12.01
-11.94
-11.92
-11.89
-11.885
-12.035
-12.2
-12.135
-12.16
-12.07
-12.1
-12.35
-12.4
-12.305
-12.17
-12.1
-12.08
-12.225
-12.22
-12.23
-12.295
-12.24
-12.265
-12.405
-12.585
-12.66
-12.63
-12.525
-12.61
-12.735
-12.965
-13.04
-13.17
-13.36
-13.615
-13.77
-13.855
-13.925
-13.965
-14.005
-13.935
-13.915
-13.96
-13.95
-14.08
-14.115
-14.09
-13.995
-13.95
-13.92
-13.975
-13.97
-13.94
-13.86
-13.88
-13.97
-14.025
-14.005
-14.055
-14.215
-14.315
-14.165
-13.92
-13.8
-13.845
-13.845
-13.695
-13.665
-13.645
-13.605
-13.43
-13.315
-13.185
-12.92
-12.725
-12.485
-12.21
-11.88
-11.59
-11.675
-11.225
-11.155
-11.12
-11.03
-10.885
-10.81
-10.915
-11.27
-11.685
-12.0
-12.325
-12.545
-12.68
-12.75
-12.895
-13.035
-13.05
-13.12
-13.16
-13.05
-13.01
-12.95
-12.87
-12.755
-12.62
-12.505
-12.355
-12.245
-12.205
-12.195
-12.21
-12.26
-12.33
-12.3
-12.25
-12.25
-12.17
-12.175
-12.225
-12.3
-12.36
-12.41
-12.515
-12.595
-12.725
-12.87
-12.925
-12.99
-13.045
-13.065
-13.075
-13.125
-13.14
-13.16
-13.125
-13.14
-13.16
-13.19
-13.265
-13.31
-13.355
-13.385
-13.425
-13.45
-13.495
-13.495
-13.6
-13.675
-13.725
-13.82
-13.905
-13.89
-13.98
-14.065
-14.115
-14.245
-14.375
-14.52
-14.615
-14.705
-14.725
-14.635
-14.555
-14.45
-14.325
-14.21
-14.175
-14.2
-14.155
-14.09
-13.915
-13.56
-13.285
-13.12
-13.065
-13.22
-13.535
-13.945
-14.41
-14.845
-15.215
-15.265
-15.29
-15.3
-15.435
-15.49
-15.52
-15.585
-15.52
-15.515
-15.5
-15.49
-15.485
-15.495
-15.45
-15.385
-15.29
-15.155
-15.02
-14.825
-14.555
-14.395
-14.225
-14.125
-14.22
-14.315
-14.385
-14.39
-14.35
-14.295
-14.205
-14.11
-14.025
-13.995
-13.975
-13.985
-14.03
-14.045
-14.015
-13.995
-13.96
-13.935
-13.95
-13.935
-13.935
-13.9
-13.84
-13.86
-13.87
-13.855
-13.885
-13.925
-13.925
-13.85
-13.73
-13.665
-13.63
-13.695
-13.78
-13.84
-13.87
-13.86
-13.77
-13.665
-13.675
-13.725
-13.745
-13.815
-13.855
-13.86
-13.7
-13.64
-13.57
-13.37
-13.345
-13.375
-13.475
-13.595
-13.645
-13.635
-13.525
-13.505
-13.495
-13.575
-13.6
-13.615
-13.425
-13.335
-13.28
-13.27
-13.18
-13.095
-13.05
-12.935
-12.75
-12.525
-12.285
-12.07
-11.885
-11.825
-11.79
-11.76
-11.69
-11.66
-11.62
-11.58
-11.54
-11.51
-11.49
-11.445
-11.46
-11.56
-11.645
-11.73
-11.795
-11.78
-11.905
-11.92
-11.85
-11.815
-11.81
-11.795
-11.78
-11.715
-11.61
-11.5
-11.44
-11.305
-11.085
-10.345
-9.59
-8.895
-8.365
-8.025
-7.75
-7.515
-7.46
-7.49
-7.58
-7.745
-7.84
-7.945
-7.905
-7.895
-7.925
-7.975
-7.92
-7.795
-7.64
-7.41
-7.14
-7.26
-6.6
-6.46
-6.38
-6.365
-6.4
-6.555
-6.79
-7.035
-7.275
-7.505
-7.765
-8.05
-8.32
-8.665
-8.97
-9.255
-9.67
-10.01
-10.3
-10.49
-10.64
-10.77
-10.885
-10.985
-11.135
-11.26
-11.25
-11.29
-11.36
-11.43
-11.525
-11.595
-11.605
-11.59
-11.52
-11.5
-11.56
-11.62
-11.66
-11.76
-11.765
-11.7
-11.74
-11.855
-11.99
-12.195
-12.285
-12.23
-11.97
-12.115
-12.23
-12.31
-12.29
-12.33
-12.39
-12.44
-12.37
-12.395
-12.63
-12.76
-12.84
-12.925
-13.185
-13.35
-13.425
-13.39
-13.485
-13.67
-13.805
-14.07
-14.245
-14.245
-14.29
-14.32
-14.29
-14.4
-14.45
-14.45
-14.525
-14.585
-14.615
-14.595
-14.525
-14.45
-14.37
-14.335
-14.325
-14.35
-14.4
-14.46
-14.49
-14.62
-14.655
-14.6
-14.4
-14.135
-13.725
-13.165
-12.78
-12.38
-11.995
-11.585
-11.3
-11.05
-10.83
-10.29
-9.585
-9.49
-8.29
-8.035
-8.06
-8.605
-9.44
-10.295
-10.87
-11.405
-11.815
-12.1
-12.355
-12.57
-12.74
-12.9
-12.99
-12.985
-13.015
-12.98
-12.935
-12.91
-12.86
-12.825
-12.745
-12.625
-12.485
-12.365
-12.195
-12.09
-12.04
-11.995
-11.935
-11.86
-11.845
-11.795
-11.755
-11.725
-11.725
-11.745
-11.765
-11.865
-12.005
-12.11
-12.175
-12.26
-12.38
-12.53
-12.605
-12.68
-12.785
-12.87
-12.965
-13.035
-13.14
-13.205
-13.255
-13.195
-13.185
-13.195
-13.27
-13.32
-13.345
-13.43
-13.48
-13.545
-13.645
-13.72
-13.815
-13.925
-14.005
-14.065
-14.1
-14.105
-14.15
-14.2
-14.26
-14.365
-14.51
-14.615
-14.65
-14.665
-14.675
-14.66
-14.68
-14.68
-14.67
-14.675
-14.68
-14.705
-14.695
-14.685
-14.7
-14.675
-14.605
-14.55
-14.55
-14.595
-14.57
-14.515
-14.6
-14.625
-14.59
-14.575
-14.595
-14.635
-14.62
-14.535
-14.47
-14.455
-14.36
-14.35
-14.425
-14.44
-14.44
-14.455
-14.44
-14.35
-14.29
-14.275
-14.2
-14.115
-14.005
-13.905
-13.85
-13.835
-13.795
-13.82
-13.86
-14.005
-14.21
-14.335
-14.37
-14.325
-14.32
-14.295
-14.48
-14.595
-14.735
-14.735
-14.7
-14.655
-14.655
-14.58
-14.535
-14.52
-14.38
-14.245
-14.145
-14.125
-14.04
-13.955
-13.93
-13.945
-13.965
-13.93
-13.825
-13.755
-13.705
-13.63
-13.615
-13.695
-13.76
-13.79
-13.78
-13.8
-13.845
-13.845
-13.835
-13.795
-13.72
-13.62
-13.435
-13.365
-13.44
-13.585
-13.74
-13.875
-13.905
-14.075
-14.205
-14.145
-14.155
-13.92
-13.615
-13.775
-13.96
-14.075
-13.8
-13.54
-13.355
-13.35
-13.21
-13.06
-12.895
-12.835
-12.71
-12.555
-12.475
-12.445
-12.445
-12.49
-12.57
-12.665
-12.715
-12.82
-12.955
-13.135
-13.275
-13.41
-13.58
-13.675
-13.655
-13.59
-13.515
-13.36
-13.25
-13.27
-13.15
-13.125
-13.09
-13.02
-12.9
-12.745
-12.65
-12.56
-12.43
-12.235
-12.085
-11.86
-11.55
-10.9
-9.93
-8.76
-7.79
-7.195
-6.805
-6.55
-6.3
-6.065
-5.89
-5.805
-5.745
-5.79
-5.885
-5.945
-6.04
-6.175
-6.325
-6.52
-6.67
-6.955
-7.22
-7.17
-7.72
-7.96
-8.165
-8.295
-8.485
-8.735
-8.99
-9.295
-9.595
-9.855
-10.09
-10.2
-10.135
-10.08
-10.12
-10.26
-10.415
-10.79
-11.255
-11.8
-12.205
-12.445
-12.6
-12.74
-12.83
-12.86
-12.97
-13.12
-13.215
-13.11
-12.95
-12.81
-12.835
-12.895
-12.925
-12.895
-12.905
-12.9
-12.81
-12.715
-12.625
-12.58
-12.51
-12.475
-12.405
-12.2
-12.275
-12.355
-12.435
-12.29
-12.245
-12.25
-12.445
-12.61
-12.71
-12.65
-12.56
-12.495
-12.605
-12.615
-12.61
-12.59
-12.635
-12.755
-12.96
-13.22
-13.355
-13.36
-13.24
-13.135
-13.135
-13.085
-13.27
-13.255
-13.285
-13.31
-13.335
-13.295
-13.155
-13.09
-13.115
-13.26
-13.33
-13.43
-13.585
-13.66
-13.7
-13.765
-13.81
-13.895
-13.975
-14.015
-13.99
-13.88
-13.765
-13.625
-13.52
-13.425
-13.335
-13.085
-12.7
-12.435
-12.38
-12.375
-12.345
-12.305
-12.2
-12.225
-11.995
-11.975
-11.99
-11.925
-11.96
-12.075
-12.18
-12.245
-12.29
-12.34
-12.295
-12.245
-12.2
-12.135
-12.08
-11.985
-12.0
-12.0
-11.97
-11.86
-11.83
-11.825
-11.905
-11.91
-11.86
-11.815
-11.75
-11.715
-11.665
-11.665
-11.665
-11.68
-11.705
-11.73
-11.745
-11.725
-11.665
-11.645
-11.71
-11.86
-11.98
-12.06
-12.05
-12.07
-12.08
-12.015
-12.035
-12.085
-12.16
-12.155
-12.135
-12.085
-12.205
-12.25
-12.27
-12.23
-12.205
-12.175
-12.17
-12.18
-12.165
-12.21
-12.305
-12.35
-12.41
-12.495
-12.52
-12.495
-12.58
-12.64
-12.665
-12.655
-12.655
-12.675
-12.705
-12.7
-12.735
-12.82
-12.96
-13.0
-13.005
-13.075
-13.065
-13.09
-13.115
-13.135
-13.145
-13.125
-13.085
-13.125
-13.185
-13.235
-13.275
-13.265
-13.225
-13.21
-13.24
-13.29
-13.245
-13.225
-13.19
-13.11
-12.99
-12.945
-12.97
-13.06
-13.12
-13.1
-13.07
-13.07
-13.03
-13.01
-13.0
-13.02
-13.16
-13.22
-13.2
-13.14
-13.085
-13.01
-12.955
-12.935
-12.895
-12.825
-12.72
-12.71
-12.73
-12.775
-12.795
-12.785
-12.83
-12.81
-12.715
-12.62
-12.54
-12.51
-12.57
-12.59
-12.575
-12.56
-12.515
-12.49
-12.425
-12.43
-12.29
-12.22
-12.145
-12.055
-12.035
-12.015
-12.015
-12.07
-12.14
-12.215
-12.27
-12.28
-12.185
-11.93
-11.8
-11.795
-11.825
-11.85
-11.8
-11.8
-11.795
-11.755
-11.665
-11.51
-11.32
-11.185
-11.26
-11.345
-11.3
-11.095
-10.835
-10.55
-10.3
-10.08
-10.11
-10.445
-10.8
-11.27
-11.665
-11.9
-12.045
-12.14
-12.23
-12.205
-12.175
-12.135
-12.0
-11.81
-11.645
-11.465
-11.325
-11.205
-11.105
-11.03
-10.915
-10.835
-10.68
-10.47
-10.295
-10.155
-10.05
-10.065
-10.08
-10.155
-10.285
-10.42
-10.58
-10.695
-10.825
-11.055
-11.205
-11.16
-11.195
-11.13
-11.04
-11.05
-10.995
-10.92
-10.85
-10.835
-10.85
-10.89
-10.86
-10.865
-10.875
-11.005
-11.135
-11.3
-11.49
-11.685
-11.845
-11.955
-12.065
-12.14
-12.145
-12.14
-12.1
-12.08
-12.055
-12.03
-11.97
-11.895
-11.865
-11.8
-11.685
-11.535
-11.38
-11.415
-11.24
-11.165
-11.09
-11.085
-11.14
-11.23
-11.315
-11.335
-11.4
-11.48
-11.59
-11.695
-11.81
-11.915
-11.98
-12.02
-12.145
-12.18
-12.215
-12.255
-12.345
-12.43
-12.455
-12.535
-12.58
-12.59
-12.535
-12.505
-12.55
-12.575
-12.56
-12.47
-12.285
-12.305
-12.36
-12.345
-12.305
-12.25
-12.255
-12.25
-12.385
-12.515
-12.39
-12.285
-12.22
-12.305
-12.365
-12.39
-12.305
-12.205
-12.08
-11.96
-12.14
-12.11
-12.045
-12.1
-12.225
-12.32
-12.285
-12.19
-12.18
-12.29
-12.48
-12.66
-12.84
-12.945
-13.015
-13.08
-13.08
-13.02
-12.955
-12.97
-12.785
-12.66
-12.48
-12.485
-12.57
-12.665
-12.67
-12.695
-12.69
-12.61
-12.57
-12.51
-12.455
-12.565
-12.655
-12.73
-12.655
-12.53
-12.405
-12.305
-12.37
-12.395
-12.315
-12.245
-12.125
-12.03
-11.945
-11.84
-11.71
-11.445
-11.2
-10.96
-10.675
-10.395
-10.17
-10.23
-9.805
-9.49
-9.145
-8.94
-8.735
-8.445
-8.005
-7.33
-6.745
-6.375
-6.37
-6.43
-6.555
-6.785
-7.095
-7.475
-7.775
-8.03
-8.215
-8.33
-8.455
-8.595
-8.765
-8.96
-9.2
-9.445
-9.57
-9.665
-9.745
-9.785
-9.805
-9.79
-9.725
-9.745
-9.785
-9.835
-9.62
-9.47
-9.285
-9.215
-9.185
-9.2
-9.305
-9.425
-9.525
-9.6
-9.7
-9.735
-9.755
-9.825
-9.945
-10.115
-10.215
-10.235
-10.21
-10.275
-10.315
-10.36
-10.38
-10.52
-10.625
-10.75
-10.77
-10.765
-10.745
-10.845
-11.07
-11.275
-11.41
-11.485
-11.54
-11.535
-11.585
-11.555
-11.505
-11.405
-11.45
-11.515
-11.54
-11.5
-11.4
-11.33
-11.29
-11.1
-10.865
-10.605
-10.475
-10.545
-10.785
-11.13
-11.535
-11.955
-12.355
-12.645
-12.75
-12.83
-12.94
-13.05
-13.12
-13.245
-13.445
-13.495
-13.495
-13.48
-13.515
-13.495
-13.435
-13.425
-13.26
-13.195
-13.075
-12.89
-12.74
-12.64
-12.575
-12.51
-12.46
-12.415
-12.35
-12.33
-12.315
-12.305
-12.315
-12.385
-12.435
-12.425
-12.425
-12.45
-12.475
-12.47
-12.43
-12.32
-12.26
-12.27
-12.26
-12.23
-12.23
-12.16
-12.125
-12.065
-12.09
-12.075
-12.04
-12.05
-11.925
-11.855
-11.75
-11.73
-11.725
-11.78
-11.735
-11.705
-11.65
-11.66
-11.625
-11.62
-11.645
-11.67
-11.655
-11.595
-11.615
-11.57
-11.55
-11.555
-11.555
-11.5
-11.405
-11.37
-11.365
-11.375
-11.505
-11.55
-11.545
-11.515
-11.59
-11.66
-11.72
-11.53
-11.295
-11.4
-10.91
-10.87
-10.925
-10.975
-11.025
-11.06
-11.145
-11.165
-11.14
-11.16
-11.23
-11.265
-11.235
-11.205
-11.17
-11.145
-11.005
-10.87
-10.725
-10.575
-10.47
-10.375
-10.3
-10.29
-10.24
-10.21
-10.15
-10.145
-10.14
-10.15
-10.175
-10.24
-10.38
-10.545
-10.7
-10.645
-10.87
-10.95
-10.995
-11.06
-11.09
-11.12
-11.18
-11.19
-11.15
-11.18
-11.22
-11.17
-11.065
-10.975
-10.805
-10.63
-10.515
-10.305
-10.015
-9.645
-8.715
-7.36
-5.535
-4.095
-2.965
-2.135
-1.49
-1.025
-0.725
-0.655
-0.855
-1.205
-1.585
-1.725
-1.82
-1.79
-2.11
-2.345
-2.615
-2.855
-3.055
-3.2
-3.375
-3.55
-3.74
-3.91
-4.05
-4.24
-4.42
-4.675
-4.935
-5.225
-5.55
-5.865
-6.17
-6.53
-6.76
-6.945
-7.045
-7.17
-7.3
-7.47
-7.59
-7.67
-7.775
-7.91
-7.98
-8.055
-8.115
-8.17
-8.235
-8.185
-8.38
-8.455
-8.525
-8.62
-8.7
-8.785
-8.825
-8.85
-8.835
-8.855
-8.9
-8.995
-9.1
-9.14
-9.04
-8.855
-8.93
-9.14
-9.345
-9.55
-9.565
-9.375
-8.96
-8.68
-8.655
-8.91
-8.945
-9.005
-9.145
-9.305
-9.37
-9.375
-9.43
-9.265
-9.105
-9.12
-9.145
-9.35
-9.585
-9.74
-9.85
-9.985
-10.13
-10.23
-10.295
-10.38
-10.445
-10.5
-10.435
-10.49
-10.72
-11.1
-11.405
-11.485
-11.485
-11.44
-11.365
-11.26
-11.085
-11.085
-11.055
-11.045
-11.005
-11.08
-11.21
-11.15
-10.865
-10.445
-10.01
-9.37
-8.82
-8.9
-8.345
-8.4
-8.605
-8.935
-9.3
-9.525
-9.515
-9.42
-9.31
-9.18
-9.025
-8.835
-8.595
-8.49
-8.425
-8.405
-8.395
-8.45
-8.545
-8.725
-8.95
-9.18
-9.41
-9.59
-9.73
-9.84
-9.8
-9.735
-9.695
-9.68
-9.645
-9.59
-9.58
-9.57
-9.53
-9.485
-9.435
-9.39
-9.34
-9.37
-9.365
-9.385
-9.47
-9.505
-9.525
-9.575
-9.62
-9.66
-9.63
-9.715
-9.79
-9.89
-9.905
-9.935
-9.995
-10.1
-10.165
-10.22
-10.28
-10.3
-10.315
-10.29
-10.27
-10.245
-10.225
-10.315
-10.42
-10.505
-10.505
-10.5
-10.485
-10.49
-10.65
-10.765
-10.835
-10.89
-10.94
-10.945
-10.88
-10.915
-11.015
-11.16
-11.185
-11.255
-11.34
-11.385
-11.435
-11.5
-11.605
-11.69
-11.75
-11.83
-11.82
-11.795
-11.88
-11.915
-11.92
-11.88
-11.965
-12.055
-12.095
-12.12
-12.13
-12.165
-12.18
-12.195
-12.165
-12.16
-12.115
-12.12
-12.095
-12.09
-12.11
-12.165
-12.15
-12.13
-12.085
-11.985
-11.885
-11.875
-11.985
-12.025
-12.125
-12.24
-12.29
-12.355
-12.385
-12.43
-12.47
-12.51
-12.525
-12.5
-12.435
-12.355
-12.295
-12.27
-12.285
-12.315
-12.315
-12.295
-12.28
-12.24
-12.21
-12.205
-12.24
-12.235
-12.21
-12.235
-12.235
-12.265
-12.24
-12.225
-12.19
-12.185
-12.115
-12.005
-11.92
-11.795
-11.735
-11.7
-11.755
-11.76
-11.75
-11.735
-11.725
-11.7
-11.685
-11.665
-11.625
-11.55
-11.595
-11.635
-11.66
-11.74
-11.845
-11.955
-12.015
-11.87
-11.75
-11.745
-11.775
-11.7
-11.55
-11.445
-11.38
-11.315
-11.34
-11.49
-11.665
-11.775
-11.765
-11.69
-11.51
-11.5
-11.555
-11.625
-11.67
-11.7
-11.625
-11.495
-11.405
-11.325
-11.205
-11.085
-10.945
-10.775
-10.67
-10.54
-10.395
-10.225
-10.105
-10.045
-10.05
-10.035
-10.02
-10.025
-9.965
-9.985
-10.08
-10.24
-10.365
-10.475
-10.62
-10.72
-10.83
-10.91
-11.055
-11.14
-11.145
-11.17
-11.18
-11.16
-11.16
-11.095
-11.02
-10.88
-10.68
-10.445
-10.19
-9.33
-8.27
-7.07
-6.355
-5.815
-5.44
-5.13
-4.955
-4.87
-4.92
-5.17
-5.39
-5.365
-5.57
-5.585
-5.52
-5.47
-5.395
-5.255
-5.005
-4.78
-4.57
-4.355
-4.26
-4.135
-3.935
-3.715
-3.47
-3.275
-3.35
-3.615
-4.09
-4.735
-5.505
-6.21
-6.795
-7.27
-7.635
-7.985
-8.42
-8.755
-9.075
-9.37
-9.63
-9.8
-9.91
-10.0
-10.075
-10.0
-10.14
-10.15
-10.07
-10.045
-10.04
-10.015
-9.95
-9.82
-9.715
-9.62
-9.49
-9.395
-9.435
-9.655
-9.77
-9.795
-9.875
-9.9
-9.915
-9.91
-9.95
-9.945
-9.87
-9.84
-9.875
-10.0
-10.055
-10.075
-10.105
-10.045
-10.055
-10.105
-10.275
-10.48
-10.62
-10.59
-10.68
-10.635
-10.55
-10.575
-10.615
-10.67
-10.76
-11.02
-11.26
-11.47
-11.585
-11.69
-11.775
-11.69
-11.705
-11.81
-11.745
-11.71
-11.735
-11.86
-11.99
-12.045
-12.03
-11.98
-11.865
-11.665
-11.65
-11.75
-11.875
-11.93
-11.865
-11.79
-11.815
-11.64
-11.395
-11.52
-10.645
-10.4
-10.335
-10.505
-10.58
-10.605
-10.71
-10.62
-10.33
-9.865
-9.495
-9.215
-9.065
-8.79
-8.495
-8.17
-7.765
-7.46
-7.185
-6.875
-6.795
-6.765
-6.77
-6.86
-7.155
-7.6
-8.055
-8.505
-8.92
-9.295
-9.46
-9.57
-9.7
-9.91
-10.135
-10.03
-10.43
-10.385
-10.175
-9.965
-9.84
-9.735
-9.725
-9.76
-9.78
-9.745
-9.56
-9.41
-9.29
-9.44
-9.535
-9.505
-9.525
-9.495
-9.395
-9.28
-9.235
-9.205
-9.235
-9.31
-9.4
-9.555
-9.775
-9.86
-9.905
-9.905
-9.915
-9.96
-9.965
-10.08
-10.18
-10.13
-10.265
-10.255
-10.24
-10.36
-10.44
-10.49
-10.575
-10.61
-10.67
-10.705
-10.685
-10.725
-10.85
-10.99
-11.105
-11.21
-11.25
-11.275
-11.295
-11.3
-11.445
-11.585
-11.635
-11.61
-11.57
-11.615
-11.655
-11.62
-11.545
-11.51
-11.525
-11.585
-11.695
-11.695
-11.645
-11.625
-11.585
-11.63
-11.74
-11.74
-11.74
-11.74
-11.695
-11.68
-11.685
-11.73
-11.845
-11.955
-12.08
-12.08
-12.055
-12.065
-12.04
-12.035
-12.015
-11.975
-11.99
-12.05
-12.1
-12.13
-12.145
-12.185
-12.16
-12.16
-12.19
-12.22
-12.27
-12.29
-12.325
-12.31
-12.28
-12.27
-12.195
-12.18
-12.14
-12.11
-12.06
-12.025
-12.055
-12.115
-12.175
-12.185
-12.21
-12.175
-12.14
