-0.640000000000000
-0.640000000000000
-0.670000000000000
-0.690000000000000
-0.720000000000000
-0.720000000000000
-0.720000000000000
-0.720000000000000
-0.830000000000000
-0.930000000000000
-1.04000000000000
-1.04000000000000
-1.04000000000000
-1.04000000000000
-1.15000000000000
-1.25000000000000
-1.36000000000000
-1.36000000000000
-1.36000000000000
-1.36000000000000
-1.47000000000000
-1.57000000000000
-1.68000000000000
-1.73000000000000
-1.79000000000000
-1.84000000000000
-1.84000000000000
-1.84000000000000
-1.84000000000000
-1.71000000000000
-1.57000000000000
-1.44000000000000
-1.44000000000000
-1.44000000000000
-1.44000000000000
-0.670000000000000
0.110000000000000
0.880000000000000
0.880000000000000
0.880000000000000
0.880000000000000
2.03000000000000
3.17000000000000
4.32000000000000
4.85000000000000
5.39000000000000
5.92000000000000
5.92000000000000
5.92000000000000
5.92000000000000
6.64000000000000
7.36000000000000
8.08000000000000
8.08000000000000
8.08000000000000
8.08000000000000
8.35000000000000
8.61000000000000
8.88000000000000
8.88000000000000
8.88000000000000
8.88000000000000
8.85000000000000
8.83000000000000
8.80000000000000
8.69000000000000
8.59000000000000
8.48000000000000
8.48000000000000
8.48000000000000
8.48000000000000
8.16000000000000
7.84000000000000
7.52000000000000
7.52000000000000
7.52000000000000
7.52000000000000
7.17000000000000
6.83000000000000
6.48000000000000
6.48000000000000
6.48000000000000
6.48000000000000
6.16000000000000
5.84000000000000
5.52000000000000
5.39000000000000
5.25000000000000
5.12000000000000
5.12000000000000
5.12000000000000
5.12000000000000
4.91000000000000
4.69000000000000
4.48000000000000
4.48000000000000
4.48000000000000
4.48000000000000
4.27000000000000
4.05000000000000
3.84000000000000
3.84000000000000
3.84000000000000
3.84000000000000
3.71000000000000
3.57000000000000
3.44000000000000
3.31000000000000
3.17000000000000
3.04000000000000
2.91000000000000
2.77000000000000
2.64000000000000
2.45000000000000
2.27000000000000
2.08000000000000
2.08000000000000
2.08000000000000
2.08000000000000
1.97000000000000
1.87000000000000
1.76000000000000
1.76000000000000
1.76000000000000
1.76000000000000
1.71000000000000
1.65000000000000
1.60000000000000
1.57000000000000
1.55000000000000
1.52000000000000
1.52000000000000
1.52000000000000
1.52000000000000
1.44000000000000
1.36000000000000
1.28000000000000
1.28000000000000
1.28000000000000
1.28000000000000
1.17000000000000
1.07000000000000
0.960000000000000
0.960000000000000
0.960000000000000
0.960000000000000
0.770000000000000
0.590000000000000
0.400000000000000
0.320000000000000
0.240000000000000
0.160000000000000
0.160000000000000
0.160000000000000
0.160000000000000
0
-0.160000000000000
-0.320000000000000
-0.320000000000000
-0.320000000000000
-0.320000000000000
-0.450000000000000
-0.590000000000000
-0.720000000000000
-0.720000000000000
-0.720000000000000
-0.720000000000000
-0.830000000000000
-0.930000000000000
-1.04000000000000
-1.07000000000000
-1.09000000000000
-1.12000000000000
-1.12000000000000
-1.12000000000000
-1.12000000000000
-1.15000000000000
-1.17000000000000
-1.20000000000000
-1.25000000000000
-1.31000000000000
-1.36000000000000
-1.44000000000000
-1.52000000000000
-1.60000000000000
-1.65000000000000
-1.71000000000000
-1.76000000000000
-1.92000000000000
-2.08000000000000
-2.24000000000000
-2.32000000000000
-2.40000000000000
-2.48000000000000
-2.48000000000000
-2.48000000000000
-2.48000000000000
-2.69000000000000
-2.91000000000000
-3.12000000000000
-3.12000000000000
-3.12000000000000
-3.12000000000000
-3.31000000000000
-3.49000000000000
-3.68000000000000
-3.68000000000000
-3.68000000000000
-3.68000000000000
-3.63000000000000
-3.57000000000000
-3.52000000000000
-3.52000000000000
-3.52000000000000
-3.52000000000000
-3.25000000000000
-2.99000000000000
-2.72000000000000
-1.65000000000000
-0.590000000000000
0.480000000000000
0.480000000000000
0.480000000000000
0.480000000000000
1.60000000000000
2.72000000000000
3.84000000000000
3.84000000000000
3.84000000000000
3.84000000000000
4.56000000000000
5.28000000000000
6
6
6
6
6.19000000000000
6.37000000000000
6.56000000000000
6.64000000000000
6.72000000000000
6.80000000000000
6.80000000000000
6.80000000000000
6.80000000000000
6.61000000000000
6.43000000000000
6.24000000000000
6.24000000000000
6.24000000000000
6.24000000000000
6.08000000000000
5.92000000000000
5.76000000000000
5.41000000000000
5.07000000000000
4.72000000000000
4.72000000000000
4.72000000000000
4.72000000000000
4.40000000000000
4.08000000000000
3.76000000000000
3.76000000000000
3.76000000000000
3.76000000000000
3.60000000000000
3.44000000000000
3.28000000000000
3.17000000000000
3.07000000000000
2.96000000000000
2.72000000000000
2.48000000000000
2.24000000000000
2.16000000000000
2.08000000000000
2
2
2
2
1.89000000000000
1.79000000000000
1.68000000000000
1.57000000000000
1.47000000000000
1.36000000000000
1.09000000000000
0.830000000000000
0.560000000000000
0.560000000000000
0.560000000000000
0.560000000000000
0.400000000000000
0.240000000000000
0.0800000000000000
0.0800000000000000
0.0800000000000000
0.0800000000000000
0.0300000000000000
-0.0300000000000000
-0.0800000000000000
-0.130000000000000
-0.190000000000000
-0.240000000000000
-0.240000000000000
-0.240000000000000
-0.240000000000000
-0.320000000000000
-0.400000000000000
-0.480000000000000
-0.480000000000000
-0.480000000000000
-0.480000000000000
-0.590000000000000
-0.690000000000000
-0.800000000000000
-0.800000000000000
-0.800000000000000
-0.800000000000000
-0.850000000000000
-0.910000000000000
-0.960000000000000
-1.07000000000000
-1.17000000000000
-1.28000000000000
-1.33000000000000
-1.39000000000000
-1.44000000000000
-1.49000000000000
-1.55000000000000
-1.60000000000000
-1.65000000000000
-1.71000000000000
-1.76000000000000
-1.89000000000000
-2.03000000000000
-2.16000000000000
-2.16000000000000
-2.16000000000000
-2.16000000000000
-2.21000000000000
-2.27000000000000
-2.32000000000000
-2.35000000000000
-2.37000000000000
-2.40000000000000
-2.43000000000000
-2.45000000000000
-2.48000000000000
-2.53000000000000
-2.59000000000000
-2.64000000000000
-2.64000000000000
-2.64000000000000
-2.64000000000000
-2.67000000000000
-2.69000000000000
-2.72000000000000
-2.72000000000000
-2.72000000000000
-2.72000000000000
-2.75000000000000
-2.77000000000000
-2.80000000000000
-2.80000000000000
-2.80000000000000
-2.80000000000000
-2.85000000000000
-2.91000000000000
-2.96000000000000
-3.01000000000000
-3.07000000000000
-3.12000000000000
-3.15000000000000
-3.17000000000000
-3.20000000000000
-3.25000000000000
-3.31000000000000
-3.36000000000000
-3.44000000000000
-3.52000000000000
-3.60000000000000
-3.68000000000000
-3.76000000000000
-3.84000000000000
-3.89000000000000
-3.95000000000000
-4
-4.03000000000000
-4.05000000000000
-4.08000000000000
-4.08000000000000
-4.08000000000000
-4.08000000000000
-3.84000000000000
-3.60000000000000
-3.36000000000000
-3.01000000000000
-2.67000000000000
-2.32000000000000
-1.73000000000000
-1.15000000000000
-0.560000000000000
0.0300000000000000
0.610000000000000
1.20000000000000
1.81000000000000
2.43000000000000
3.04000000000000
3.49000000000000
3.95000000000000
4.40000000000000
4.83000000000000
5.25000000000000
5.68000000000000
5.84000000000000
6
6.16000000000000
6.32000000000000
6.48000000000000
6.64000000000000
6.64000000000000
6.64000000000000
6.64000000000000
6.64000000000000
6.64000000000000
6.64000000000000
6.53000000000000
6.43000000000000
6.32000000000000
6.19000000000000
6.05000000000000
5.92000000000000
5.57000000000000
5.23000000000000
4.88000000000000
4.88000000000000
4.88000000000000
4.88000000000000
4.53000000000000
4.19000000000000
3.84000000000000
3.84000000000000
3.84000000000000
3.84000000000000
3.68000000000000
3.52000000000000
3.36000000000000
3.09000000000000
2.83000000000000
2.56000000000000
2.56000000000000
2.56000000000000
2.56000000000000
2.40000000000000
2.24000000000000
2.08000000000000
2.08000000000000
2.08000000000000
2.08000000000000
2
1.92000000000000
1.84000000000000
1.63000000000000
1.41000000000000
1.20000000000000
1.20000000000000
1.20000000000000
1.20000000000000
0.990000000000000
0.770000000000000
0.560000000000000
0.560000000000000
0.560000000000000
0.560000000000000
0.480000000000000
0.400000000000000
0.320000000000000
0.270000000000000
0.210000000000000
0.160000000000000
0.110000000000000
0.0500000000000000
0
-0.0500000000000000
-0.110000000000000
-0.160000000000000
-0.190000000000000
-0.210000000000000
-0.240000000000000
-0.290000000000000
-0.350000000000000
-0.400000000000000
-0.450000000000000
-0.510000000000000
-0.560000000000000
-0.640000000000000
-0.720000000000000
-0.800000000000000
-0.880000000000000
-0.960000000000000
-1.04000000000000
-1.12000000000000
-1.20000000000000
-1.28000000000000
-1.39000000000000
-1.49000000000000
-1.60000000000000
-1.68000000000000
-1.76000000000000
-1.84000000000000
-1.92000000000000
-2
-2.08000000000000
-2.16000000000000
-2.24000000000000
-2.32000000000000
-2.43000000000000
-2.53000000000000
-2.64000000000000
-2.69000000000000
-2.75000000000000
-2.80000000000000
-2.85000000000000
-2.91000000000000
-2.96000000000000
-3.01000000000000
-3.07000000000000
-3.12000000000000
-3.17000000000000
-3.23000000000000
-3.28000000000000
-3.31000000000000
-3.33000000000000
-3.36000000000000
-3.41000000000000
-3.47000000000000
-3.52000000000000
-3.57000000000000
-3.63000000000000
-3.68000000000000
-3.71000000000000
-3.73000000000000
-3.76000000000000
-3.79000000000000
-3.81000000000000
-3.84000000000000
-3.87000000000000
-3.89000000000000
-3.92000000000000
-3.97000000000000
-4.03000000000000
-4.08000000000000
-4.13000000000000
-4.19000000000000
-4.24000000000000
-4.29000000000000
-4.35000000000000
-4.40000000000000
-4.48000000000000
-4.56000000000000
-4.64000000000000
-4.72000000000000
-4.80000000000000
-4.88000000000000
-4.96000000000000
-5.04000000000000
-5.12000000000000
-5.23000000000000
-5.33000000000000
-5.44000000000000
-5.52000000000000
-5.60000000000000
-5.68000000000000
-5.79000000000000
-5.89000000000000
-6
-5.95000000000000
-5.89000000000000
-5.84000000000000
-5.31000000000000
-4.77000000000000
-4.24000000000000
-4.24000000000000
-4.24000000000000
-4.24000000000000
-3.79000000000000
-3.33000000000000
-2.88000000000000
-2.27000000000000
-1.65000000000000
-1.04000000000000
-0.480000000000000
0.0800000000000000
0.640000000000000
1.12000000000000
1.60000000000000
2.08000000000000
2.08000000000000
2.08000000000000
3.04000000000000
3.31000000000000
3.57000000000000
3.84000000000000
3.89000000000000
3.95000000000000
4
4.03000000000000
4.05000000000000
4.08000000000000
3.97000000000000
3.87000000000000
3.76000000000000
3.63000000000000
3.49000000000000
3.36000000000000
3.17000000000000
2.99000000000000
2.80000000000000
2.59000000000000
2.37000000000000
2.16000000000000
1.92000000000000
1.68000000000000
1.44000000000000
1.20000000000000
0.960000000000000
0.720000000000000
0.270000000000000
-0.190000000000000
-0.640000000000000
-0.640000000000000
-0.640000000000000
-0.640000000000000
-0.850000000000000
-1.07000000000000
-1.28000000000000
-1.49000000000000
-1.71000000000000
-1.92000000000000
-2.08000000000000
-2.24000000000000
-2.40000000000000
-2.59000000000000
-2.77000000000000
-2.96000000000000
-3.12000000000000
-3.28000000000000
-3.44000000000000
-3.63000000000000
-3.81000000000000
-4
-4.16000000000000
-4.32000000000000
-4.48000000000000
-4.61000000000000
-4.75000000000000
-4.88000000000000
-5.04000000000000
-5.20000000000000
-5.36000000000000
-5.47000000000000
-5.57000000000000
-5.68000000000000
-5.79000000000000
-5.89000000000000
-6
-6.05000000000000
-6.11000000000000
-6.16000000000000
-6.21000000000000
-6.27000000000000
-6.32000000000000
-6.35000000000000
-6.37000000000000
-6.40000000000000
-6.45000000000000
-6.51000000000000
-6.56000000000000
-6.61000000000000
-6.67000000000000
-6.72000000000000
-6.80000000000000
-6.88000000000000
-6.96000000000000
-7.04000000000000
-7.12000000000000
-7.20000000000000
-7.25000000000000
-7.31000000000000
-7.36000000000000
-7.47000000000000
-7.57000000000000
-7.68000000000000
-7.79000000000000
-7.89000000000000
-8
-8.13000000000000
-8.27000000000000
-8.40000000000000
-8.51000000000000
-8.61000000000000
-8.72000000000000
-8.85000000000000
-8.99000000000000
-9.12000000000000
-9.25000000000000
-9.39000000000000
-9.52000000000000
-9.63000000000000
-9.73000000000000
-9.84000000000000
-9.95000000000000
-10.0500000000000
-10.1600000000000
-10.1600000000000
-10.1600000000000
-10.1600000000000
-10.1600000000000
-10.1600000000000
-10.1600000000000
-10.1600000000000
-10.1600000000000
-10.1600000000000
-10.1600000000000
-10.1600000000000
-10.1600000000000
-10.1600000000000
-10.1600000000000
-10.1600000000000
-10.1600000000000
-10.1600000000000
-10.1600000000000
-10.1600000000000
-10.1600000000000
-10.1600000000000
-10.1600000000000
-10.1600000000000
-10.1600000000000
-10.1600000000000
-10.1600000000000
-10.1600000000000
-10.1600000000000
-10.1600000000000
-10.1600000000000
-10.1600000000000
-10.1600000000000
-10.1600000000000
-10.1600000000000
-10.1600000000000
-10.1600000000000
-10.1600000000000
-10.1600000000000
-10.1600000000000
-10.1600000000000
-10.1600000000000
-10.1600000000000
-10.1600000000000
-10.1600000000000
-10.1600000000000
-10.1600000000000
-10.1600000000000
-10.1600000000000
-10.1600000000000
-10.1600000000000
-10.1600000000000
-10.1600000000000
-10.1600000000000
-10.1600000000000
-10.1600000000000
-10.1600000000000
-10.1600000000000
-10.1600000000000
-10.1600000000000
-10.1600000000000
-10
-9.84000000000000
-9.68000000000000
-8.99000000000000
-8.29000000000000
-7.60000000000000
-6.91000000000000
-6.21000000000000
-5.52000000000000
-4.88000000000000
-4.24000000000000
-3.60000000000000
-3.15000000000000
-2.69000000000000
-2.24000000000000
-1.84000000000000
-1.44000000000000
-1.04000000000000
-0.910000000000000
-0.770000000000000
-0.640000000000000
-0.510000000000000
-0.370000000000000
-0.240000000000000
-0.270000000000000
-0.290000000000000
-0.320000000000000
-0.400000000000000
-0.480000000000000
-0.560000000000000
-0.690000000000000
-0.830000000000000
-0.960000000000000
-1.15000000000000
-1.33000000000000
-1.52000000000000
-1.71000000000000
-1.89000000000000
-2.08000000000000
-2.32000000000000
-2.56000000000000
-2.80000000000000
-3.04000000000000
-3.28000000000000
-3.52000000000000
-3.73000000000000
-3.95000000000000
-4.16000000000000
-4.35000000000000
-4.53000000000000
-4.72000000000000
-4.93000000000000
-5.15000000000000
-5.36000000000000
-5.57000000000000
-5.79000000000000
-6
-6.21000000000000
-6.43000000000000
-6.64000000000000
-6.80000000000000
-6.96000000000000
-7.12000000000000
-7.31000000000000
-7.49000000000000
-7.68000000000000
-7.84000000000000
-8
-8.16000000000000
-8.29000000000000
-8.43000000000000
-8.56000000000000
-8.61000000000000
-8.67000000000000
-8.72000000000000
-8.75000000000000
-8.77000000000000
-8.80000000000000
-8.85000000000000
-8.91000000000000
-8.96000000000000
-8.96000000000000
-8.96000000000000
-8.96000000000000
-8.93000000000000
-8.91000000000000
-8.88000000000000
-8.85000000000000
-8.83000000000000
-8.80000000000000
-8.77000000000000
-8.75000000000000
-8.72000000000000
-8.67000000000000
-8.61000000000000
-8.56000000000000
-8.53000000000000
-8.51000000000000
-8.48000000000000
-8.48000000000000
-8.48000000000000
-8.48000000000000
-8.48000000000000
-8.48000000000000
-8.48000000000000
-8.51000000000000
-8.53000000000000
-8.56000000000000
-8.59000000000000
-8.61000000000000
-8.64000000000000
-8.67000000000000
-8.69000000000000
-8.72000000000000
-8.72000000000000
-8.72000000000000
-8.72000000000000
-8.75000000000000
-8.77000000000000
-8.80000000000000
-8.80000000000000
-8.80000000000000
-8.80000000000000
-8.80000000000000
-8.80000000000000
-8.80000000000000
-8.77000000000000
-8.75000000000000
-8.72000000000000
-8.69000000000000
-8.67000000000000
-8.64000000000000
-8.61000000000000
-8.59000000000000
-8.56000000000000
-8.53000000000000
-8.51000000000000
-8.48000000000000
-8.45000000000000
-8.43000000000000
-8.40000000000000
-8.35000000000000
-8.29000000000000
-8.24000000000000
-8.21000000000000
-8.19000000000000
-8.16000000000000
-8.13000000000000
-8.11000000000000
-8.08000000000000
-8.08000000000000
-8.08000000000000
-8.08000000000000
-8.05000000000000
-8.03000000000000
-8
-7.97000000000000
-7.95000000000000
-7.92000000000000
-7.89000000000000
-7.87000000000000
-7.84000000000000
-7.84000000000000
-7.84000000000000
-7.84000000000000
-7.81000000000000
-7.79000000000000
-7.76000000000000
-7.71000000000000
-7.65000000000000
-7.60000000000000
-7.39000000000000
-7.17000000000000
-6.96000000000000
-6.61000000000000
-6.27000000000000
-5.92000000000000
-5.41000000000000
-4.91000000000000
-4.40000000000000
-3.76000000000000
-3.12000000000000
-2.48000000000000
-1.76000000000000
-1.04000000000000
-0.320000000000000
0.270000000000000
0.850000000000000
1.44000000000000
2
2.56000000000000
3.12000000000000
3.49000000000000
3.87000000000000
4.24000000000000
4.53000000000000
4.83000000000000
5.12000000000000
5.28000000000000
5.44000000000000
5.60000000000000
5.65000000000000
5.71000000000000
5.76000000000000
5.79000000000000
5.81000000000000
5.84000000000000
5.79000000000000
5.73000000000000
5.68000000000000
5.57000000000000
5.47000000000000
5.36000000000000
5.20000000000000
5.04000000000000
4.88000000000000
4.75000000000000
4.61000000000000
4.48000000000000
4.32000000000000
4.16000000000000
4
3.87000000000000
3.73000000000000
3.60000000000000
3.44000000000000
3.28000000000000
3.12000000000000
3.01000000000000
2.91000000000000
2.80000000000000
2.69000000000000
2.59000000000000
2.48000000000000
2.37000000000000
2.27000000000000
2.16000000000000
2.08000000000000
2
1.92000000000000
1.81000000000000
1.71000000000000
1.60000000000000
1.52000000000000
1.44000000000000
1.36000000000000
1.25000000000000
1.15000000000000
1.04000000000000
0.930000000000000
0.830000000000000
0.720000000000000
0.610000000000000
0.510000000000000
0.400000000000000
0.320000000000000
0.240000000000000
0.160000000000000
0.110000000000000
0.0500000000000000
0
-0.0500000000000000
-0.110000000000000
-0.160000000000000
-0.190000000000000
-0.210000000000000
-0.240000000000000
-0.240000000000000
-0.240000000000000
-0.240000000000000
-0.240000000000000
-0.240000000000000
-0.240000000000000
-0.270000000000000
-0.290000000000000
-0.320000000000000
-0.320000000000000
-0.320000000000000
-0.320000000000000
-0.350000000000000
-0.370000000000000
-0.400000000000000
-0.430000000000000
-0.450000000000000
-0.480000000000000
-0.510000000000000
-0.530000000000000
-0.560000000000000
-0.610000000000000
-0.670000000000000
-0.720000000000000
-0.750000000000000
-0.770000000000000
-0.800000000000000
-0.830000000000000
-0.850000000000000
-0.880000000000000
-0.930000000000000
-0.990000000000000
-1.04000000000000
-1.07000000000000
-1.09000000000000
-1.12000000000000
-1.15000000000000
-1.17000000000000
-1.20000000000000
-1.23000000000000
-1.25000000000000
-1.28000000000000
-1.31000000000000
-1.33000000000000
-1.36000000000000
-1.36000000000000
-1.36000000000000
-1.36000000000000
-1.36000000000000
-1.36000000000000
-1.36000000000000
-1.39000000000000
-1.41000000000000
-1.44000000000000
-1.47000000000000
-1.49000000000000
-1.52000000000000
-1.55000000000000
-1.57000000000000
-1.60000000000000
-1.65000000000000
-1.71000000000000
-1.76000000000000
-1.84000000000000
-1.92000000000000
-2
-2.05000000000000
-2.11000000000000
-2.16000000000000
-2.21000000000000
-2.27000000000000
-2.32000000000000
-2.40000000000000
-2.48000000000000
-2.56000000000000
-2.64000000000000
-2.72000000000000
-2.80000000000000
-2.85000000000000
-2.91000000000000
-2.96000000000000
-2.91000000000000
-2.85000000000000
-2.80000000000000
-2.64000000000000
-2.48000000000000
-2.32000000000000
-1.89000000000000
-1.47000000000000
-1.04000000000000
-0.560000000000000
-0.0800000000000000
0.400000000000000
1.01000000000000
1.63000000000000
2.24000000000000
2.80000000000000
3.36000000000000
3.92000000000000
4.43000000000000
4.93000000000000
5.44000000000000
5.79000000000000
6.13000000000000
6.48000000000000
6.77000000000000
7.07000000000000
7.36000000000000
7.47000000000000
7.57000000000000
7.68000000000000
7.76000000000000
7.84000000000000
7.92000000000000
7.87000000000000
7.81000000000000
7.76000000000000
7.68000000000000
7.60000000000000
7.52000000000000
7.41000000000000
7.31000000000000
7.20000000000000
7.07000000000000
6.93000000000000
6.80000000000000
6.61000000000000
6.43000000000000
6.24000000000000
6.11000000000000
5.97000000000000
5.84000000000000
5.68000000000000
5.52000000000000
5.36000000000000
5.20000000000000
5.04000000000000
4.88000000000000
4.75000000000000
4.61000000000000
4.48000000000000
4.37000000000000
4.27000000000000
4.16000000000000
4.08000000000000
4
3.92000000000000
3.81000000000000
3.71000000000000
3.60000000000000
3.49000000000000
3.39000000000000
3.28000000000000
3.20000000000000
3.12000000000000
3.04000000000000
3.04000000000000
3.04000000000000
2.80000000000000
2.69000000000000
2.59000000000000
2.48000000000000
2.37000000000000
2.27000000000000
2.16000000000000
2.08000000000000
2
1.92000000000000
1.84000000000000
1.76000000000000
1.68000000000000
1.65000000000000
1.63000000000000
1.60000000000000
1.57000000000000
1.55000000000000
1.52000000000000
1.47000000000000
1.41000000000000
1.36000000000000
1.33000000000000
1.31000000000000
1.28000000000000
1.25000000000000
1.23000000000000
1.20000000000000
1.15000000000000
1.09000000000000
1.04000000000000
0.960000000000000
0.880000000000000
0.800000000000000
0.750000000000000
0.690000000000000
0.640000000000000
0.590000000000000
0.530000000000000
0.480000000000000
0.370000000000000
0.270000000000000
0.160000000000000
0.0800000000000000
0
-0.0800000000000000
-0.160000000000000
-0.240000000000000
-0.320000000000000
-0.400000000000000
-0.480000000000000
-0.560000000000000
-0.640000000000000
-0.720000000000000
-0.800000000000000
-0.850000000000000
-0.910000000000000
-0.960000000000000
-1.01000000000000
-1.07000000000000
-1.12000000000000
-1.17000000000000
-1.23000000000000
-1.28000000000000
-1.33000000000000
-1.39000000000000
-1.44000000000000
-1.49000000000000
-1.55000000000000
-1.60000000000000
-1.65000000000000
-1.71000000000000
-1.76000000000000
-1.81000000000000
-1.87000000000000
-1.92000000000000
-1.97000000000000
-2.03000000000000
-2.08000000000000
-2.16000000000000
-2.24000000000000
-2.32000000000000
-2.37000000000000
-2.43000000000000
-2.48000000000000
-2.53000000000000
-2.59000000000000
-2.64000000000000
-2.75000000000000
-2.85000000000000
-2.96000000000000
-3.04000000000000
-3.12000000000000
-3.20000000000000
-3.28000000000000
-3.36000000000000
-3.44000000000000
-3.49000000000000
-3.55000000000000
-3.60000000000000
-3.68000000000000
-3.76000000000000
-3.84000000000000
-3.73000000000000
-3.63000000000000
-3.52000000000000
-3.25000000000000
-2.99000000000000
-2.72000000000000
-2.29000000000000
-1.87000000000000
-1.44000000000000
-0.880000000000000
-0.320000000000000
0.240000000000000
0.850000000000000
1.47000000000000
2.08000000000000
2.59000000000000
3.09000000000000
3.60000000000000
4.05000000000000
4.51000000000000
4.96000000000000
5.28000000000000
5.60000000000000
5.92000000000000
6.13000000000000
6.35000000000000
6.56000000000000
6.67000000000000
6.77000000000000
6.88000000000000
6.88000000000000
6.88000000000000
6.88000000000000
6.80000000000000
6.72000000000000
6.64000000000000
6.51000000000000
6.37000000000000
6.24000000000000
6.11000000000000
5.97000000000000
5.84000000000000
5.65000000000000
5.47000000000000
5.28000000000000
5.09000000000000
4.91000000000000
4.72000000000000
4.56000000000000
4.40000000000000
4.24000000000000
4.11000000000000
3.97000000000000
3.84000000000000
3.71000000000000
3.57000000000000
3.44000000000000
3.33000000000000
3.23000000000000
3.12000000000000
3.01000000000000
2.91000000000000
2.80000000000000
2.72000000000000
2.64000000000000
2.56000000000000
2.48000000000000
2.40000000000000
2.32000000000000
2.21000000000000
2.11000000000000
2
1.92000000000000
1.84000000000000
1.76000000000000
1.65000000000000
1.55000000000000
1.44000000000000
1.33000000000000
1.23000000000000
1.12000000000000
1.04000000000000
0.960000000000000
0.880000000000000
0.800000000000000
0.720000000000000
0.640000000000000
0.590000000000000
0.530000000000000
0.480000000000000
0.430000000000000
0.370000000000000
0.320000000000000
0.270000000000000
0.210000000000000
0.160000000000000
0.110000000000000
0.0500000000000000
0
-0.0300000000000000
-0.0500000000000000
-0.0800000000000000
-0.130000000000000
-0.190000000000000
-0.240000000000000
-0.320000000000000
-0.400000000000000
-0.480000000000000
-0.560000000000000
-0.640000000000000
-0.720000000000000
-0.800000000000000
-0.880000000000000
-0.960000000000000
-1.07000000000000
-1.17000000000000
-1.28000000000000
-1.39000000000000
-1.49000000000000
-1.60000000000000
-1.71000000000000
-1.81000000000000
-1.92000000000000
-2
-2.08000000000000
-2.16000000000000
-2.21000000000000
-2.27000000000000
-2.32000000000000
-2.40000000000000
-2.48000000000000
-2.56000000000000
-2.61000000000000
-2.67000000000000
-2.72000000000000
-2.75000000000000
-2.77000000000000
-2.80000000000000
-2.85000000000000
-2.91000000000000
-2.96000000000000
-2.96000000000000
-2.96000000000000
-2.96000000000000
-2.99000000000000
-3.01000000000000
-3.04000000000000
-3.07000000000000
-3.09000000000000
-3.12000000000000
-3.15000000000000
-3.17000000000000
-3.20000000000000
-3.23000000000000
-3.25000000000000
-3.28000000000000
-3.33000000000000
-3.39000000000000
-3.44000000000000
-3.49000000000000
-3.55000000000000
-3.60000000000000
-3.65000000000000
-3.71000000000000
-3.76000000000000
-3.81000000000000
-3.87000000000000
-3.92000000000000
-4
-4.08000000000000
-4.16000000000000
-4.24000000000000
-4.32000000000000
-4.40000000000000
-4.48000000000000
-4.56000000000000
-4.64000000000000
-4.69000000000000
-4.75000000000000
-4.80000000000000
-4.85000000000000
-4.91000000000000
-4.96000000000000
-4.75000000000000
-4.53000000000000
-4.32000000000000
-4
-3.68000000000000
-3.36000000000000
-2.83000000000000
-2.29000000000000
-1.76000000000000
-1.17000000000000
-0.590000000000000
0
0.640000000000000
1.28000000000000
1.92000000000000
2.40000000000000
2.88000000000000
3.36000000000000
3.81000000000000
4.27000000000000
4.72000000000000
4.93000000000000
5.15000000000000
5.36000000000000
5.55000000000000
5.73000000000000
5.92000000000000
5.97000000000000
6.03000000000000
6.08000000000000
6.08000000000000
6.08000000000000
6.08000000000000
5.97000000000000
5.87000000000000
5.76000000000000
5.60000000000000
5.44000000000000
5.28000000000000
5.09000000000000
4.91000000000000
4.72000000000000
4.56000000000000
4.40000000000000
4.24000000000000
4.05000000000000
3.87000000000000
3.68000000000000
3.52000000000000
3.36000000000000
3.20000000000000
3.04000000000000
2.88000000000000
2.72000000000000
2.59000000000000
2.45000000000000
2.32000000000000
2.19000000000000
2.05000000000000
1.92000000000000
1.81000000000000
1.71000000000000
1.60000000000000
1.49000000000000
1.39000000000000
1.28000000000000
1.17000000000000
1.07000000000000
0.960000000000000
0.850000000000000
0.750000000000000
0.640000000000000
0.510000000000000
0.370000000000000
0.240000000000000
0.130000000000000
0.0300000000000000
-0.0800000000000000
-0.210000000000000
-0.350000000000000
-0.480000000000000
-0.590000000000000
-0.690000000000000
-0.800000000000000
-0.830000000000000
-0.850000000000000
-0.880000000000000
-0.930000000000000
-0.990000000000000
-1.04000000000000
-1.09000000000000
-1.15000000000000
-1.20000000000000
-1.23000000000000
-1.25000000000000
-1.28000000000000
-1.33000000000000
-1.39000000000000
-1.44000000000000
-1.49000000000000
-1.55000000000000
-1.60000000000000
-1.68000000000000
-1.76000000000000
-1.84000000000000
-1.92000000000000
-2
-2.08000000000000
-2.19000000000000
-2.29000000000000
-2.40000000000000
-2.51000000000000
-2.61000000000000
-2.72000000000000
-2.83000000000000
-2.93000000000000
-3.04000000000000
-3.15000000000000
-3.25000000000000
-3.36000000000000
-3.49000000000000
-3.63000000000000
-3.76000000000000
-3.92000000000000
-4.08000000000000
-4.24000000000000
-4.37000000000000
-4.51000000000000
-4.64000000000000
-4.80000000000000
-4.96000000000000
-5.12000000000000
-5.23000000000000
-5.33000000000000
-5.44000000000000
-5.55000000000000
-5.65000000000000
-5.76000000000000
-5.87000000000000
-5.97000000000000
-6.08000000000000
-6.21000000000000
-6.35000000000000
-6.48000000000000
-6.59000000000000
-6.69000000000000
-6.80000000000000
-6.88000000000000
-6.96000000000000
-7.04000000000000
-7.15000000000000
-7.25000000000000
-7.36000000000000
-7.47000000000000
-7.57000000000000
-7.68000000000000
-7.76000000000000
-7.84000000000000
-7.92000000000000
-8.03000000000000
-8.13000000000000
-8.24000000000000
-8.35000000000000
-8.45000000000000
-8.56000000000000
-8.67000000000000
-8.77000000000000
-8.88000000000000
-8.99000000000000
-9.09000000000000
-9.20000000000000
-9.31000000000000
-9.41000000000000
-9.52000000000000
-9.63000000000000
-9.73000000000000
-9.84000000000000
-9.92000000000000
-10
-10.0800000000000
-10.0800000000000
-10.0800000000000
-10.0800000000000
-10.0300000000000
-9.97000000000000
-9.92000000000000
-9.81000000000000
-9.71000000000000
-9.60000000000000
-9.12000000000000
-8.64000000000000
-8.16000000000000
-7.60000000000000
-7.04000000000000
-6.48000000000000
-5.81000000000000
-5.15000000000000
-4.48000000000000
-3.89000000000000
-3.31000000000000
-2.72000000000000
-2.21000000000000
-1.71000000000000
-1.20000000000000
-0.880000000000000
-0.560000000000000
-0.240000000000000
0.0500000000000000
0.350000000000000
0.640000000000000
0.690000000000000
0.750000000000000
0.800000000000000
0.850000000000000
0.910000000000000
0.960000000000000
0.880000000000000
0.800000000000000
0.720000000000000
0.590000000000000
0.450000000000000
0.320000000000000
0.160000000000000
0
-0.160000000000000
-0.350000000000000
-0.530000000000000
-0.720000000000000
-0.930000000000000
-1.15000000000000
-1.36000000000000
-1.55000000000000
-1.73000000000000
-1.92000000000000
-2.11000000000000
-2.29000000000000
-2.48000000000000
-2.69000000000000
-2.91000000000000
-3.12000000000000
-3.31000000000000
-3.49000000000000
-3.68000000000000
-3.87000000000000
-4.05000000000000
-4.24000000000000
-4.43000000000000
-4.61000000000000
-4.80000000000000
-4.99000000000000
-5.17000000000000
-5.36000000000000
-5.49000000000000
-5.63000000000000
-5.76000000000000
-5.89000000000000
-6.03000000000000
-6.16000000000000
-6.27000000000000
-6.37000000000000
-6.48000000000000
-6.59000000000000
-6.69000000000000
-6.80000000000000
-6.91000000000000
-7.01000000000000
-7.12000000000000
-7.15000000000000
-7.17000000000000
-7.20000000000000
-7.25000000000000
-7.31000000000000
-7.36000000000000
-7.36000000000000
-7.36000000000000
-7.36000000000000
-7.39000000000000
-7.41000000000000
-7.44000000000000
-7.44000000000000
-7.44000000000000
-7.44000000000000
-7.44000000000000
-7.44000000000000
-7.44000000000000
-7.44000000000000
-7.44000000000000
-7.44000000000000
-7.44000000000000
-7.44000000000000
-7.44000000000000
-7.49000000000000
-7.55000000000000
-7.60000000000000
-7.63000000000000
-7.65000000000000
-7.68000000000000
-7.73000000000000
-7.79000000000000
-7.84000000000000
-7.89000000000000
-7.95000000000000
-8
-8.08000000000000
-8.16000000000000
-8.24000000000000
-8.35000000000000
-8.45000000000000
-8.56000000000000
-8.64000000000000
-8.72000000000000
-8.80000000000000
-8.80000000000000
-8.80000000000000
-9.04000000000000
-9.09000000000000
-9.15000000000000
-9.20000000000000
-9.25000000000000
-9.31000000000000
-9.36000000000000
-9.41000000000000
-9.47000000000000
-9.52000000000000
-9.57000000000000
-9.63000000000000
-9.68000000000000
-9.68000000000000
-9.68000000000000
-9.68000000000000
-9.65000000000000
-9.63000000000000
-9.60000000000000
-9.57000000000000
-9.55000000000000
-9.52000000000000
-9.49000000000000
-9.47000000000000
-9.44000000000000
-9.41000000000000
-9.39000000000000
-9.36000000000000
-9.36000000000000
-9.36000000000000
-9.36000000000000
-9.33000000000000
-9.31000000000000
-9.28000000000000
-9.28000000000000
-9.28000000000000
-9.28000000000000
-9.25000000000000
-9.23000000000000
-9.20000000000000
-9.23000000000000
-9.25000000000000
-9.28000000000000
-9.28000000000000
-9.28000000000000
-9.28000000000000
-9.25000000000000
-9.23000000000000
-9.20000000000000
-9.07000000000000
-8.93000000000000
-8.80000000000000
-8.51000000000000
-8.21000000000000
-7.92000000000000
-7.47000000000000
-7.01000000000000
-6.56000000000000
-5.89000000000000
-5.23000000000000
-4.56000000000000
-3.84000000000000
-3.12000000000000
-2.40000000000000
-1.81000000000000
-1.23000000000000
-0.640000000000000
-0.0800000000000000
0.480000000000000
1.04000000000000
1.47000000000000
1.89000000000000
2.32000000000000
2.61000000000000
2.91000000000000
3.20000000000000
3.36000000000000
3.52000000000000
3.68000000000000
3.73000000000000
3.79000000000000
3.84000000000000
3.87000000000000
3.89000000000000
3.92000000000000
3.84000000000000
3.76000000000000
3.68000000000000
3.57000000000000
3.47000000000000
3.36000000000000
3.25000000000000
3.15000000000000
3.04000000000000
2.88000000000000
2.72000000000000
2.56000000000000
2.37000000000000
2.19000000000000
2
1.84000000000000
1.68000000000000
1.52000000000000
1.33000000000000
1.15000000000000
0.960000000000000
0.830000000000000
0.690000000000000
0.560000000000000
0.400000000000000
0.240000000000000
0.0800000000000000
-0.0500000000000000
-0.190000000000000
-0.320000000000000
-0.450000000000000
-0.590000000000000
-0.720000000000000
-0.830000000000000
-0.930000000000000
-1.04000000000000
-1.12000000000000
-1.20000000000000
-1.28000000000000
-1.36000000000000
-1.44000000000000
-1.52000000000000
-1.52000000000000
-1.52000000000000
-1.52000000000000
-1.52000000000000
-1.52000000000000
-1.52000000000000
-1.52000000000000
-1.52000000000000
-1.52000000000000
-1.49000000000000
-1.47000000000000
-1.44000000000000
-1.41000000000000
-1.39000000000000
-1.36000000000000
-1.31000000000000
-1.25000000000000
-1.20000000000000
-1.15000000000000
-1.09000000000000
-1.04000000000000
-1.04000000000000
-1.04000000000000
-1.04000000000000
-1.01000000000000
-0.990000000000000
-0.960000000000000
-0.960000000000000
-0.960000000000000
-0.960000000000000
-0.960000000000000
-0.960000000000000
-0.960000000000000
-0.960000000000000
-0.960000000000000
-0.960000000000000
-0.960000000000000
-0.960000000000000
-0.960000000000000
-0.990000000000000
-1.01000000000000
-1.04000000000000
-1.04000000000000
-1.04000000000000
-1.04000000000000
-1.04000000000000
-1.04000000000000
-1.04000000000000
-1.04000000000000
-1.04000000000000
-1.04000000000000
-1.01000000000000
-0.990000000000000
-0.960000000000000
-0.910000000000000
-0.850000000000000
-0.800000000000000
-0.770000000000000
-0.750000000000000
-0.720000000000000
-0.720000000000000
-0.720000000000000
-0.720000000000000
-0.720000000000000
-0.720000000000000
-0.720000000000000
-0.720000000000000
-0.720000000000000
-0.720000000000000
-0.720000000000000
-0.720000000000000
-0.720000000000000
-0.750000000000000
-0.770000000000000
-0.800000000000000
-0.800000000000000
-0.800000000000000
-0.800000000000000
-0.850000000000000
-0.910000000000000
-0.960000000000000
-1.01000000000000
-1.07000000000000
-1.12000000000000
-1.15000000000000
-1.17000000000000
-1.20000000000000
-1.25000000000000
-1.31000000000000
-1.36000000000000
-1.39000000000000
-1.41000000000000
-1.44000000000000
-1.41000000000000
-1.39000000000000
-1.36000000000000
-1.23000000000000
-1.09000000000000
-0.960000000000000
-0.560000000000000
-0.160000000000000
0.240000000000000
0.720000000000000
1.20000000000000
1.68000000000000
2.32000000000000
2.96000000000000
3.60000000000000
4.21000000000000
4.83000000000000
5.44000000000000
5.97000000000000
6.51000000000000
7.04000000000000
7.44000000000000
7.84000000000000
8.24000000000000
8.56000000000000
8.88000000000000
9.20000000000000
9.33000000000000
9.47000000000000
9.60000000000000
9.71000000000000
9.81000000000000
9.92000000000000
9.89000000000000
9.87000000000000
9.84000000000000
9.76000000000000
9.68000000000000
9.60000000000000
9.47000000000000
9.33000000000000
9.20000000000000
9.04000000000000
8.88000000000000
8.72000000000000
8.53000000000000
8.35000000000000
8.16000000000000
7.97000000000000
7.79000000000000
7.60000000000000
7.41000000000000
7.23000000000000
7.04000000000000
6.91000000000000
6.77000000000000
6.64000000000000
6.48000000000000
6.32000000000000
6.16000000000000
6.03000000000000
5.89000000000000
5.76000000000000
5.63000000000000
5.49000000000000
5.36000000000000
5.25000000000000
5.15000000000000
5.04000000000000
4.91000000000000
4.77000000000000
4.64000000000000
4.51000000000000
4.37000000000000
4.24000000000000
4.11000000000000
3.97000000000000
3.84000000000000
3.73000000000000
3.63000000000000
3.52000000000000
3.41000000000000
3.31000000000000
3.20000000000000
3.12000000000000
3.04000000000000
2.96000000000000
2.85000000000000
2.75000000000000
2.64000000000000
2.59000000000000
2.53000000000000
2.48000000000000
2.43000000000000
2.37000000000000
2.32000000000000
2.32000000000000
2.32000000000000
2.32000000000000
2.29000000000000
2.27000000000000
2.24000000000000
2.19000000000000
2.13000000000000
2.08000000000000
2.05000000000000
2.03000000000000
2
1.97000000000000
1.95000000000000
1.92000000000000
1.84000000000000
1.76000000000000
1.68000000000000
1.60000000000000
1.52000000000000
1.44000000000000
1.39000000000000
1.33000000000000
1.28000000000000
1.20000000000000
1.12000000000000
1.04000000000000
0.930000000000000
0.830000000000000
0.720000000000000
0.640000000000000
0.560000000000000
0.480000000000000
0.400000000000000
0.320000000000000
0.240000000000000
0.190000000000000
0.130000000000000
0.0800000000000000
0
-0.0800000000000000
-0.160000000000000
-0.190000000000000
-0.210000000000000
-0.240000000000000
-0.290000000000000
-0.350000000000000
-0.400000000000000
-0.450000000000000
-0.510000000000000
-0.560000000000000
-0.640000000000000
-0.720000000000000
-0.800000000000000
-0.880000000000000
-0.960000000000000
-1.04000000000000
-1.09000000000000
-1.15000000000000
-1.20000000000000
-1.28000000000000
-1.36000000000000
-1.44000000000000
-1.55000000000000
-1.65000000000000
-1.76000000000000
-1.84000000000000
-1.92000000000000
-2
-2.11000000000000
-2.21000000000000
-2.32000000000000
-2.43000000000000
-2.53000000000000
-2.64000000000000
-2.75000000000000
-2.85000000000000
-2.96000000000000
-2.99000000000000
-3.01000000000000
-3.04000000000000
-3.04000000000000
-3.04000000000000
-3.04000000000000
-2.77000000000000
-2.51000000000000
-2.24000000000000
-1.87000000000000
-1.49000000000000
-1.12000000000000
-0.560000000000000
0
0.560000000000000
1.12000000000000
1.68000000000000
2.24000000000000
2.77000000000000
3.31000000000000
3.84000000000000
4.21000000000000
4.59000000000000
4.96000000000000
5.31000000000000
5.65000000000000
6
6.13000000000000
6.27000000000000
6.40000000000000
6.51000000000000
6.61000000000000
6.72000000000000
6.69000000000000
6.67000000000000
6.64000000000000
6.56000000000000
6.48000000000000
6.40000000000000
6.29000000000000
6.19000000000000
6.08000000000000
5.92000000000000
5.76000000000000
5.60000000000000
5.41000000000000
5.23000000000000
5.04000000000000
4.88000000000000
4.72000000000000
4.56000000000000
4.40000000000000
4.24000000000000
4.08000000000000
3.92000000000000
3.76000000000000
3.60000000000000
3.47000000000000
3.33000000000000
3.20000000000000
3.09000000000000
2.99000000000000
2.88000000000000
2.75000000000000
2.61000000000000
2.48000000000000
2.37000000000000
2.27000000000000
2.16000000000000
2.08000000000000
2
1.92000000000000
1.81000000000000
1.71000000000000
1.60000000000000
1.49000000000000
1.39000000000000
1.28000000000000
1.17000000000000
1.07000000000000
0.960000000000000
0.850000000000000
0.750000000000000
0.640000000000000
0.530000000000000
0.430000000000000
0.320000000000000
0.210000000000000
0.110000000000000
0
-0.0500000000000000
-0.110000000000000
-0.160000000000000
-0.210000000000000
-0.270000000000000
-0.320000000000000
-0.370000000000000
-0.430000000000000
-0.480000000000000
-0.510000000000000
-0.530000000000000
-0.560000000000000
-0.610000000000000
-0.670000000000000
-0.720000000000000
-0.770000000000000
-0.830000000000000
-0.880000000000000
-0.960000000000000
-1.04000000000000
-1.12000000000000
-1.17000000000000
-1.23000000000000
-1.28000000000000
-1.36000000000000
-1.44000000000000
-1.52000000000000
-1.57000000000000
-1.63000000000000
-1.68000000000000
-1.76000000000000
-1.84000000000000
-1.92000000000000
-1.97000000000000
-2.03000000000000
-2.08000000000000
-2.13000000000000
-2.19000000000000
-2.24000000000000
-2.29000000000000
-2.35000000000000
-2.40000000000000
-2.45000000000000
-2.51000000000000
-2.56000000000000
-2.61000000000000
-2.67000000000000
-2.72000000000000
-2.72000000000000
-2.72000000000000
-2.72000000000000
-2.75000000000000
-2.77000000000000
-2.80000000000000
-2.83000000000000
-2.85000000000000
-2.88000000000000
-2.91000000000000
-2.93000000000000
-2.96000000000000
-2.96000000000000
-2.96000000000000
-2.96000000000000
-2.99000000000000
-3.01000000000000
-3.04000000000000
-3.09000000000000
-3.15000000000000
-3.20000000000000
-3.25000000000000
-3.31000000000000
-3.36000000000000
-3.44000000000000
-3.52000000000000
-3.60000000000000
-3.65000000000000
-3.71000000000000
-3.76000000000000
-3.84000000000000
-3.92000000000000
-4
-4.08000000000000
-4.16000000000000
-4.24000000000000
-4.29000000000000
-4.35000000000000
-4.40000000000000
-4.48000000000000
-4.56000000000000
-4.64000000000000
-4.59000000000000
-4.53000000000000
-4.48000000000000
-4.24000000000000
-4
-3.76000000000000
-3.33000000000000
-2.91000000000000
-2.48000000000000
-1.92000000000000
-1.36000000000000
-0.800000000000000
-0.160000000000000
0.480000000000000
1.12000000000000
1.68000000000000
2.24000000000000
2.80000000000000
3.31000000000000
3.81000000000000
4.32000000000000
4.67000000000000
5.01000000000000
5.36000000000000
5.36000000000000
5.36000000000000
6.08000000000000
6.19000000000000
6.29000000000000
6.40000000000000
6.40000000000000
6.40000000000000
6.40000000000000
6.35000000000000
6.29000000000000
6.24000000000000
6.11000000000000
5.97000000000000
5.84000000000000
5.68000000000000
5.52000000000000
5.36000000000000
5.17000000000000
4.99000000000000
4.80000000000000
4.61000000000000
4.43000000000000
4.24000000000000
4.05000000000000
3.87000000000000
3.68000000000000
3.52000000000000
3.36000000000000
3.20000000000000
3.04000000000000
2.88000000000000
2.72000000000000
2.61000000000000
2.51000000000000
2.40000000000000
2.27000000000000
2.13000000000000
2
1.89000000000000
1.79000000000000
1.68000000000000
1.55000000000000
1.41000000000000
1.28000000000000
1.17000000000000
1.07000000000000
0.960000000000000
0.850000000000000
0.750000000000000
0.640000000000000
0.480000000000000
0.320000000000000
0.160000000000000
0.0500000000000000
-0.0500000000000000
-0.160000000000000
-0.240000000000000
-0.320000000000000
-0.400000000000000
-0.480000000000000
-0.560000000000000
-0.640000000000000
-0.690000000000000
-0.750000000000000
-0.800000000000000
-0.850000000000000
-0.910000000000000
-0.960000000000000
-0.990000000000000
-1.01000000000000
-1.04000000000000
-1.09000000000000
-1.15000000000000
-1.20000000000000
-1.20000000000000
-1.20000000000000
-1.20000000000000
-1.20000000000000
-1.20000000000000
-1.20000000000000
-1.23000000000000
-1.25000000000000
-1.28000000000000
-1.33000000000000
-1.39000000000000
-1.44000000000000
-1.49000000000000
-1.55000000000000
-1.60000000000000
-1.68000000000000
-1.76000000000000
-1.84000000000000
-1.92000000000000
-2
-2.08000000000000
-2.13000000000000
-2.19000000000000
-2.24000000000000
-2.32000000000000
-2.40000000000000
-2.48000000000000
-2.53000000000000
-2.59000000000000
-2.64000000000000
-2.72000000000000
-2.80000000000000
-2.88000000000000
-2.93000000000000
-2.99000000000000
-3.04000000000000
-3.09000000000000
-3.15000000000000
-3.20000000000000
-3.25000000000000
-3.31000000000000
-3.36000000000000
-3.39000000000000
-3.41000000000000
-3.44000000000000
-3.47000000000000
-3.49000000000000
-3.52000000000000
-3.52000000000000
-3.52000000000000
-3.52000000000000
-3.55000000000000
-3.57000000000000
-3.60000000000000
-3.63000000000000
-3.65000000000000
-3.68000000000000
-3.73000000000000
-3.79000000000000
-3.84000000000000
-3.92000000000000
-4
-4.08000000000000
-4.11000000000000
-4.13000000000000
-4.16000000000000
-4.21000000000000
-4.27000000000000
-4.32000000000000
-4.40000000000000
-4.48000000000000
-4.56000000000000
-4.64000000000000
-4.72000000000000
-4.80000000000000
-4.91000000000000
-5.01000000000000
-5.12000000000000
-5.15000000000000
-5.17000000000000
-5.20000000000000
-5.20000000000000
-5.20000000000000
-5.20000000000000
-4.96000000000000
-4.72000000000000
-4.48000000000000
-4.13000000000000
-3.79000000000000
-3.44000000000000
-2.85000000000000
-2.27000000000000
-1.68000000000000
-1.09000000000000
-0.510000000000000
0.0800000000000000
0.670000000000000
1.25000000000000
1.84000000000000
2.27000000000000
2.69000000000000
3.12000000000000
3.52000000000000
3.92000000000000
4.32000000000000
4.48000000000000
4.64000000000000
4.80000000000000
4.93000000000000
5.07000000000000
5.20000000000000
5.17000000000000
5.15000000000000
5.12000000000000
5.04000000000000
4.96000000000000
4.88000000000000
4.72000000000000
4.56000000000000
4.40000000000000
4.21000000000000
4.03000000000000
3.84000000000000
3.63000000000000
3.41000000000000
3.20000000000000
2.99000000000000
2.77000000000000
2.56000000000000
2.32000000000000
2.08000000000000
1.84000000000000
1.63000000000000
1.41000000000000
1.20000000000000
1.01000000000000
0.830000000000000
0.640000000000000
0.430000000000000
0.210000000000000
0
-0.160000000000000
-0.320000000000000
-0.480000000000000
-0.670000000000000
-0.850000000000000
-1.04000000000000
-1.17000000000000
-1.31000000000000
-1.44000000000000
-1.60000000000000
-1.76000000000000
-1.92000000000000
-2.11000000000000
-2.29000000000000
-2.48000000000000
-2.67000000000000
-2.85000000000000
-3.04000000000000
-3.23000000000000
-3.41000000000000
-3.60000000000000
-3.73000000000000
-3.87000000000000
-4
-4.16000000000000
-4.32000000000000
-4.48000000000000
-4.59000000000000
-4.69000000000000
-4.80000000000000
-4.91000000000000
-5.01000000000000
-5.12000000000000
-5.20000000000000
-5.28000000000000
-5.36000000000000
-5.44000000000000
-5.52000000000000
-5.60000000000000
-5.68000000000000
-5.76000000000000
-5.84000000000000
-5.92000000000000
-6
-6.08000000000000
-6.16000000000000
-6.24000000000000
-6.32000000000000
-6.43000000000000
-6.53000000000000
-6.64000000000000
-6.75000000000000
-6.85000000000000
-6.96000000000000
-7.07000000000000
-7.17000000000000
-7.28000000000000
-7.39000000000000
-7.49000000000000
-7.60000000000000
-7.71000000000000
-7.81000000000000
-7.92000000000000
-8.05000000000000
-8.19000000000000
-8.32000000000000
-8.48000000000000
-8.64000000000000
-8.80000000000000
-8.93000000000000
-9.07000000000000
-9.20000000000000
-9.33000000000000
-9.47000000000000
-9.60000000000000
-9.71000000000000
-9.81000000000000
-9.92000000000000
-10
-10.0800000000000
-10.1600000000000
-10.1600000000000
-10.1600000000000
-10.1600000000000
-10.1600000000000
-10.1600000000000
-10.1600000000000
-10.1600000000000
-10.1600000000000
-10.1600000000000
-10.1600000000000
-10.1600000000000
-10.1600000000000
-10.1600000000000
-10.1600000000000
-10.1600000000000
-10.1600000000000
-10.1600000000000
-10.1600000000000
-10.1600000000000
-10.1600000000000
-10.1600000000000
-10.1600000000000
-10.1600000000000
-10.1600000000000
-10.1600000000000
-10.1600000000000
-10.1600000000000
-10.1600000000000
-10.1600000000000
-10.1600000000000
-10.1600000000000
-10.1600000000000
-10.1600000000000
-10.1600000000000
-10.1600000000000
-10.1600000000000
-10.1600000000000
-10.1600000000000
-10.1600000000000
-10.1600000000000
-10.1600000000000
-10.1600000000000
-10.1600000000000
-10.1600000000000
-10.1600000000000
-10.1600000000000
-10.1600000000000
-10.1600000000000
-10.1600000000000
-10.1600000000000
-10.1600000000000
-10.1300000000000
-10.1100000000000
-10.0800000000000
-9.89000000000000
-9.71000000000000
-9.52000000000000
-8.77000000000000
-8.03000000000000
-7.28000000000000
-6.61000000000000
-5.95000000000000
-5.28000000000000
-4.67000000000000
-4.05000000000000
-3.44000000000000
-3.04000000000000
-2.64000000000000
-2.24000000000000
-1.89000000000000
-1.55000000000000
-1.20000000000000
-1.09000000000000
-0.990000000000000
-0.880000000000000
-0.770000000000000
-0.670000000000000
-0.560000000000000
-0.610000000000000
-0.670000000000000
-0.720000000000000
-0.800000000000000
-0.880000000000000
-0.960000000000000
-1.09000000000000
-1.23000000000000
-1.36000000000000
-1.55000000000000
-1.73000000000000
-1.92000000000000
-2.13000000000000
-2.35000000000000
-2.56000000000000
-2.77000000000000
-2.99000000000000
-3.20000000000000
-3.39000000000000
-3.57000000000000
-3.76000000000000
-3.97000000000000
-4.19000000000000
-4.40000000000000
-4.59000000000000
-4.77000000000000
-4.96000000000000
-5.17000000000000
-5.39000000000000
-5.60000000000000
-5.79000000000000
-5.97000000000000
-6.16000000000000
-6.35000000000000
-6.53000000000000
-6.72000000000000
-6.88000000000000
-7.04000000000000
-7.20000000000000
-7.36000000000000
-7.52000000000000
-7.68000000000000
-7.84000000000000
-8
-8.16000000000000
-8.24000000000000
-8.32000000000000
-8.40000000000000
-8.45000000000000
-8.51000000000000
-8.56000000000000
-8.59000000000000
-8.61000000000000
-8.64000000000000
-8.64000000000000
-8.64000000000000
-8.64000000000000
-8.64000000000000
-8.64000000000000
-8.64000000000000
-8.61000000000000
-8.59000000000000
-8.56000000000000
-8.53000000000000
-8.51000000000000
-8.48000000000000
-8.45000000000000
-8.43000000000000
-8.40000000000000
-8.40000000000000
-8.40000000000000
-8.40000000000000
-8.37000000000000
-8.35000000000000
-8.32000000000000
-8.35000000000000
-8.37000000000000
-8.40000000000000
-8.43000000000000
-8.45000000000000
-8.48000000000000
-8.51000000000000
-8.53000000000000
-8.56000000000000
-8.61000000000000
-8.67000000000000
-8.72000000000000
-8.77000000000000
-8.83000000000000
-8.88000000000000
-8.91000000000000
-8.93000000000000
-8.96000000000000
-9.01000000000000
-9.07000000000000
-9.12000000000000
-9.17000000000000
-9.23000000000000
-9.28000000000000
-9.28000000000000
-9.28000000000000
-9.28000000000000
-9.28000000000000
-9.28000000000000
-9.28000000000000
-9.25000000000000
-9.23000000000000
-9.20000000000000
-9.17000000000000
-9.15000000000000
-9.12000000000000
-9.07000000000000
-9.01000000000000
-8.96000000000000
-8.91000000000000
-8.85000000000000
-8.80000000000000
-8.75000000000000
-8.69000000000000
-8.64000000000000
-8.61000000000000
-8.59000000000000
-8.56000000000000
-8.51000000000000
-8.45000000000000
-8.40000000000000
-8.35000000000000
-8.29000000000000
-8.24000000000000
-8.21000000000000
-8.19000000000000
-8.16000000000000
-8.13000000000000
-8.11000000000000
-8.08000000000000
-8.05000000000000
-8.03000000000000
-8
-7.95000000000000
-7.89000000000000
-7.84000000000000
-7.81000000000000
-7.79000000000000
-7.76000000000000
-7.65000000000000
-7.55000000000000
-7.44000000000000
-7.17000000000000
-6.91000000000000
-6.64000000000000
-6.24000000000000
-5.84000000000000
-5.44000000000000
-4.85000000000000
-4.27000000000000
-3.68000000000000
-3.01000000000000
-2.35000000000000
-1.68000000000000
-0.990000000000000
-0.290000000000000
0.400000000000000
0.930000000000000
1.47000000000000
2
2.48000000000000
2.96000000000000
3.44000000000000
3.76000000000000
4.08000000000000
4.40000000000000
4.61000000000000
4.83000000000000
5.04000000000000
5.15000000000000
5.25000000000000
5.36000000000000
5.39000000000000
5.41000000000000
5.44000000000000
5.39000000000000
5.33000000000000
5.28000000000000
5.17000000000000
5.07000000000000
4.96000000000000
4.83000000000000
4.69000000000000
4.56000000000000
4.40000000000000
4.24000000000000
4.08000000000000
3.92000000000000
3.76000000000000
3.60000000000000
3.44000000000000
3.28000000000000
3.12000000000000
2.99000000000000
2.85000000000000
2.72000000000000
2.61000000000000
2.51000000000000
2.40000000000000
2.29000000000000
2.19000000000000
2.08000000000000
1.95000000000000
1.81000000000000
1.68000000000000
1.57000000000000
1.47000000000000
1.36000000000000
1.28000000000000
1.20000000000000
1.12000000000000
1.01000000000000
0.910000000000000
0.800000000000000
0.720000000000000
0.640000000000000
0.560000000000000
0.480000000000000
0.400000000000000
0.320000000000000
0.320000000000000
0.320000000000000
0.0800000000000000
0
-0.0800000000000000
-0.160000000000000
-0.240000000000000
-0.320000000000000
-0.400000000000000
-0.450000000000000
-0.510000000000000
-0.560000000000000
-0.560000000000000
-0.560000000000000
-0.560000000000000
-0.590000000000000
-0.610000000000000
-0.640000000000000
-0.670000000000000
-0.690000000000000
-0.720000000000000
-0.690000000000000
-0.670000000000000
-0.640000000000000
-0.610000000000000
-0.590000000000000
-0.560000000000000
-0.560000000000000
-0.560000000000000
-0.560000000000000
-0.560000000000000
-0.560000000000000
-0.560000000000000
-0.560000000000000
-0.560000000000000
-0.560000000000000
-0.610000000000000
-0.670000000000000
-0.720000000000000
-0.770000000000000
-0.830000000000000
-0.880000000000000
-0.910000000000000
-0.930000000000000
-0.960000000000000
-0.990000000000000
-1.01000000000000
-1.04000000000000
-1.07000000000000
-1.09000000000000
-1.12000000000000
-1.15000000000000
-1.17000000000000
-1.20000000000000
-1.25000000000000
-1.31000000000000
-1.36000000000000
-1.39000000000000
-1.41000000000000
-1.44000000000000
-1.44000000000000
-1.44000000000000
-1.44000000000000
-1.47000000000000
-1.49000000000000
-1.52000000000000
-1.55000000000000
-1.57000000000000
-1.60000000000000
-1.63000000000000
-1.65000000000000
-1.68000000000000
-1.73000000000000
-1.79000000000000
-1.84000000000000
-1.89000000000000
-1.95000000000000
-2
-2.05000000000000
-2.11000000000000
-2.16000000000000
-2.24000000000000
-2.32000000000000
-2.40000000000000
-2.45000000000000
-2.51000000000000
-2.56000000000000
-2.64000000000000
-2.72000000000000
-2.80000000000000
-2.88000000000000
-2.96000000000000
-3.04000000000000
-3.09000000000000
-3.15000000000000
-3.20000000000000
-3.20000000000000
-3.20000000000000
-3.20000000000000
-3.01000000000000
-2.83000000000000
-2.64000000000000
-2.37000000000000
-2.11000000000000
-1.84000000000000
-1.28000000000000
-0.720000000000000
-0.160000000000000
0.430000000000000
1.01000000000000
1.60000000000000
2.19000000000000
2.77000000000000
3.36000000000000
3.87000000000000
4.37000000000000
4.88000000000000
5.31000000000000
5.73000000000000
6.16000000000000
6.40000000000000
6.64000000000000
6.88000000000000
7.09000000000000
7.31000000000000
7.52000000000000
7.52000000000000
7.52000000000000
7.52000000000000
7.55000000000000
7.57000000000000
7.60000000000000
7.49000000000000
7.39000000000000
7.28000000000000
7.15000000000000
7.01000000000000
6.88000000000000
6.72000000000000
6.56000000000000
6.40000000000000
6.24000000000000
6.08000000000000
5.92000000000000
5.73000000000000
5.55000000000000
5.36000000000000
5.23000000000000
5.09000000000000
4.96000000000000
4.80000000000000
4.64000000000000
4.48000000000000
4.32000000000000
4.16000000000000
4
3.87000000000000
3.73000000000000
3.60000000000000
3.49000000000000
3.39000000000000
3.28000000000000
3.20000000000000
3.12000000000000
3.04000000000000
2.93000000000000
2.83000000000000
2.72000000000000
2.61000000000000
2.51000000000000
2.40000000000000
2.29000000000000
2.19000000000000
2.08000000000000
1.95000000000000
1.81000000000000
1.68000000000000
1.57000000000000
1.47000000000000
1.36000000000000
1.25000000000000
1.15000000000000
1.04000000000000
0.990000000000000
0.930000000000000
0.880000000000000
0.830000000000000
0.770000000000000
0.720000000000000
0.690000000000000
0.670000000000000
0.640000000000000
0.610000000000000
0.590000000000000
0.560000000000000
0.530000000000000
0.510000000000000
0.480000000000000
0.450000000000000
0.430000000000000
0.400000000000000
0.350000000000000
0.290000000000000
0.240000000000000
0.190000000000000
0.130000000000000
0.0800000000000000
0
-0.0800000000000000
-0.160000000000000
-0.210000000000000
-0.270000000000000
-0.320000000000000
-0.400000000000000
-0.480000000000000
-0.560000000000000
-0.670000000000000
-0.770000000000000
-0.880000000000000
-0.960000000000000
-1.04000000000000
-1.12000000000000
-1.23000000000000
-1.33000000000000
-1.44000000000000
-1.49000000000000
-1.55000000000000
-1.60000000000000
-1.68000000000000
-1.76000000000000
-1.84000000000000
-1.89000000000000
-1.95000000000000
-2
-2.05000000000000
-2.11000000000000
-2.16000000000000
-2.19000000000000
-2.21000000000000
-2.24000000000000
-2.27000000000000
-2.29000000000000
-2.32000000000000
-2.32000000000000
-2.32000000000000
-2.32000000000000
-2.35000000000000
-2.37000000000000
-2.40000000000000
-2.45000000000000
-2.51000000000000
-2.56000000000000
-2.59000000000000
-2.61000000000000
-2.64000000000000
-2.69000000000000
-2.75000000000000
-2.80000000000000
-2.85000000000000
-2.91000000000000
-2.96000000000000
-3.04000000000000
-3.12000000000000
-3.20000000000000
-3.28000000000000
-3.36000000000000
-3.44000000000000
-3.52000000000000
-3.60000000000000
-3.68000000000000
-3.79000000000000
-3.89000000000000
-4
-4
-4
-4
-3.95000000000000
-3.89000000000000
-3.84000000000000
-3.55000000000000
-3.25000000000000
-2.96000000000000
-2.53000000000000
-2.11000000000000
-1.68000000000000
-1.09000000000000
-0.510000000000000
0.0800000000000000
0.670000000000000
1.25000000000000
1.84000000000000
2.45000000000000
3.07000000000000
3.68000000000000
4.05000000000000
4.43000000000000
4.80000000000000
5.15000000000000
5.49000000000000
5.84000000000000
6.03000000000000
6.21000000000000
6.40000000000000
6.51000000000000
6.61000000000000
6.72000000000000
6.72000000000000
6.72000000000000
6.72000000000000
6.64000000000000
6.56000000000000
6.48000000000000
6.37000000000000
6.27000000000000
6.16000000000000
6
5.84000000000000
5.68000000000000
5.52000000000000
5.36000000000000
5.20000000000000
5.04000000000000
4.88000000000000
4.72000000000000
4.56000000000000
4.40000000000000
4.24000000000000
4.08000000000000
3.92000000000000
3.76000000000000
3.63000000000000
3.49000000000000
3.36000000000000
3.20000000000000
3.04000000000000
2.88000000000000
2.77000000000000
2.67000000000000
2.56000000000000
2.48000000000000
2.40000000000000
2.32000000000000
2.24000000000000
2.16000000000000
2.08000000000000
1.97000000000000
1.87000000000000
1.76000000000000
1.65000000000000
1.55000000000000
1.44000000000000
1.33000000000000
1.23000000000000
1.12000000000000
0.990000000000000
0.850000000000000
0.720000000000000
0.640000000000000
0.560000000000000
0.480000000000000
0.400000000000000
0.320000000000000
0.240000000000000
0.190000000000000
0.130000000000000
0.0800000000000000
0.0300000000000000
-0.0300000000000000
-0.0800000000000000
-0.130000000000000
-0.190000000000000
-0.240000000000000
-0.270000000000000
-0.290000000000000
-0.320000000000000
-0.370000000000000
-0.430000000000000
-0.480000000000000
-0.530000000000000
-0.590000000000000
-0.640000000000000
-0.690000000000000
-0.750000000000000
-0.800000000000000
-0.880000000000000
-0.960000000000000
-1.04000000000000
-1.12000000000000
-1.20000000000000
-1.28000000000000
-1.39000000000000
-1.49000000000000
-1.60000000000000
-1.68000000000000
-1.76000000000000
-1.84000000000000
-1.92000000000000
-2
-2.08000000000000
-2.13000000000000
-2.19000000000000
-2.24000000000000
-2.32000000000000
-2.40000000000000
-2.48000000000000
-2.53000000000000
-2.59000000000000
-2.64000000000000
-2.67000000000000
-2.69000000000000
-2.72000000000000
-2.77000000000000
-2.83000000000000
-2.88000000000000
-2.91000000000000
-2.93000000000000
-2.96000000000000
-3.01000000000000
-3.07000000000000
-3.12000000000000
-3.12000000000000
-3.12000000000000
-3.12000000000000
-3.12000000000000
-3.12000000000000
-3.12000000000000
-3.17000000000000
-3.23000000000000
-3.28000000000000
-3.31000000000000
-3.33000000000000
-3.36000000000000
-3.39000000000000
-3.41000000000000
-3.44000000000000
-3.49000000000000
-3.55000000000000
-3.60000000000000
-3.65000000000000
-3.71000000000000
-3.76000000000000
-3.81000000000000
-3.87000000000000
-3.92000000000000
-4
-4.08000000000000
-4.16000000000000
-4.21000000000000
-4.27000000000000
-4.32000000000000
-4.40000000000000
-4.48000000000000
-4.56000000000000
-4.64000000000000
-4.72000000000000
-4.80000000000000
-4.80000000000000
-4.80000000000000
-4.80000000000000
-4.72000000000000
-4.64000000000000
-4.56000000000000
-4.16000000000000
-3.76000000000000
-3.36000000000000
-2.91000000000000
-2.45000000000000
-2
-1.36000000000000
-0.720000000000000
-0.0800000000000000
0.510000000000000
1.09000000000000
1.68000000000000
2.24000000000000
2.80000000000000
3.36000000000000
3.76000000000000
4.16000000000000
4.56000000000000
4.91000000000000
5.25000000000000
5.60000000000000
5.71000000000000
5.81000000000000
5.92000000000000
6.03000000000000
6.13000000000000
6.24000000000000
6.19000000000000
6.13000000000000
6.08000000000000
5.97000000000000
5.87000000000000
5.76000000000000
5.63000000000000
5.49000000000000
5.36000000000000
5.17000000000000
4.99000000000000
4.80000000000000
4.59000000000000
4.37000000000000
4.16000000000000
4
3.84000000000000
3.68000000000000
3.49000000000000
3.31000000000000
3.12000000000000
2.96000000000000
2.80000000000000
2.64000000000000
2.48000000000000
2.32000000000000
2.16000000000000
2.05000000000000
1.95000000000000
1.84000000000000
1.71000000000000
1.57000000000000
1.44000000000000
1.33000000000000
1.23000000000000
1.12000000000000
1.01000000000000
0.910000000000000
0.800000000000000
0.690000000000000
0.590000000000000
0.480000000000000
0.370000000000000
0.270000000000000
0.160000000000000
0.0300000000000000
-0.110000000000000
-0.240000000000000
-0.350000000000000
-0.450000000000000
-0.560000000000000
-0.670000000000000
-0.770000000000000
-0.880000000000000
-0.990000000000000
-1.09000000000000
-1.20000000000000
-1.23000000000000
-1.25000000000000
-1.28000000000000
-1.33000000000000
-1.39000000000000
-1.44000000000000
-1.47000000000000
-1.49000000000000
-1.52000000000000
-1.55000000000000
-1.57000000000000
-1.60000000000000
-1.63000000000000
-1.65000000000000
-1.68000000000000
-1.76000000000000
-1.84000000000000
-1.92000000000000
-2
-2.08000000000000
-2.16000000000000
-2.24000000000000
-2.32000000000000
-2.40000000000000
-2.51000000000000
-2.61000000000000
-2.72000000000000
-2.83000000000000
-2.93000000000000
-3.04000000000000
-3.17000000000000
-3.31000000000000
-3.44000000000000
-3.55000000000000
-3.65000000000000
-3.76000000000000
-3.89000000000000
-4.03000000000000
-4.16000000000000
-4.32000000000000
-4.48000000000000
-4.64000000000000
-4.75000000000000
-4.85000000000000
-4.96000000000000
-5.09000000000000
-5.23000000000000
-5.36000000000000
-5.49000000000000
-5.63000000000000
-5.76000000000000
-5.89000000000000
-6.03000000000000
-6.16000000000000
-6.16000000000000
-6.16000000000000
-6.48000000000000
-6.56000000000000
-6.64000000000000
-6.72000000000000
-6.83000000000000
-6.93000000000000
-7.04000000000000
-7.12000000000000
-7.20000000000000
-7.28000000000000
-7.39000000000000
-7.49000000000000
-7.60000000000000
-7.71000000000000
-7.81000000000000
-7.92000000000000
-8
-8.08000000000000
-8.16000000000000
-8.27000000000000
-8.37000000000000
-8.48000000000000
-8.59000000000000
-8.69000000000000
-8.80000000000000
-8.91000000000000
-9.01000000000000
-9.12000000000000
-9.23000000000000
-9.33000000000000
-9.44000000000000
-9.55000000000000
-9.65000000000000
-9.76000000000000
-9.84000000000000
-9.92000000000000
-10
-10.0500000000000
-10.1100000000000
-10.1600000000000
-10.1600000000000
-10.1600000000000
-10.1600000000000
-9.97000000000000
-9.79000000000000
-9.60000000000000
-9.33000000000000
-9.07000000000000
-8.80000000000000
-8.19000000000000
-7.57000000000000
-6.96000000000000
-6.32000000000000
-5.68000000000000
-5.04000000000000
-4.40000000000000
-3.76000000000000
-3.12000000000000
-2.59000000000000
-2.05000000000000
-1.52000000000000
-1.09000000000000
-0.670000000000000
-0.240000000000000
0.0300000000000000
0.290000000000000
0.560000000000000
0.770000000000000
0.990000000000000
1.20000000000000
1.20000000000000
1.20000000000000
1.20000000000000
1.20000000000000
1.20000000000000
1.20000000000000
1.09000000000000
0.990000000000000
0.880000000000000
0.750000000000000
0.610000000000000
0.480000000000000
0.290000000000000
0.110000000000000
-0.0800000000000000
-0.290000000000000
-0.510000000000000
-0.720000000000000
-0.930000000000000
-1.15000000000000
-1.36000000000000
-1.57000000000000
-1.79000000000000
-2
-2.19000000000000
-2.37000000000000
-2.56000000000000
-2.77000000000000
-2.99000000000000
-3.20000000000000
-3.39000000000000
-3.57000000000000
-3.76000000000000
-3.97000000000000
-4.19000000000000
-4.40000000000000
-4.56000000000000
-4.72000000000000
-4.88000000000000
-5.07000000000000
-5.25000000000000
-5.44000000000000
-5.57000000000000
-5.71000000000000
-5.84000000000000
-5.97000000000000
-6.11000000000000
-6.24000000000000
-6.35000000000000
-6.45000000000000
-6.56000000000000
-6.64000000000000
-6.72000000000000
-6.80000000000000
-6.88000000000000
-6.96000000000000
-7.04000000000000
-7.07000000000000
-7.09000000000000
-7.12000000000000
-7.17000000000000
-7.23000000000000
-7.28000000000000
-7.28000000000000
-7.28000000000000
-7.28000000000000
-7.31000000000000
-7.33000000000000
-7.36000000000000
-7.36000000000000
-7.36000000000000
-7.36000000000000
-7.39000000000000
-7.41000000000000
-7.44000000000000
-7.44000000000000
-7.44000000000000
-7.44000000000000
-7.47000000000000
-7.49000000000000
-7.52000000000000
-7.57000000000000
-7.63000000000000
-7.68000000000000
-7.73000000000000
-7.79000000000000
-7.84000000000000
-7.89000000000000
-7.95000000000000
-8
-8.11000000000000
-8.21000000000000
-8.32000000000000
-8.40000000000000
-8.48000000000000
-8.56000000000000
-8.64000000000000
-8.72000000000000
-8.80000000000000
-8.88000000000000
-8.96000000000000
-9.04000000000000
-9.15000000000000
-9.25000000000000
-9.36000000000000
-9.44000000000000
-9.52000000000000
-9.60000000000000
-9.68000000000000
-9.76000000000000
-9.84000000000000
-9.87000000000000
-9.89000000000000
-9.92000000000000
-9.95000000000000
-9.97000000000000
-10
-10.0300000000000
-10.0500000000000
-10.0800000000000
-10.1100000000000
-10.1300000000000
-10.1600000000000
-10.1300000000000
-10.1100000000000
-10.0800000000000
-10.0800000000000
-10.0800000000000
-10.0800000000000
-10.0500000000000
-10.0300000000000
-10
-10
-10
-10
-9.97000000000000
-9.95000000000000
-9.92000000000000
-9.92000000000000
-9.92000000000000
-9.92000000000000
-9.89000000000000
-9.87000000000000
-9.84000000000000
-9.84000000000000
-9.84000000000000
-9.84000000000000
-9.84000000000000
-9.84000000000000
-9.84000000000000
-9.79000000000000
-9.73000000000000
-9.68000000000000
-9.57000000000000
-9.47000000000000
-9.36000000000000
-9.07000000000000
-8.77000000000000
-8.48000000000000
-8.03000000000000
-7.57000000000000
-7.12000000000000
-6.45000000000000
-5.79000000000000
-5.12000000000000
-4.40000000000000
-3.68000000000000
-2.96000000000000
-2.32000000000000
-1.68000000000000
-1.04000000000000
-0.450000000000000
0.130000000000000
0.720000000000000
1.15000000000000
1.57000000000000
2
2.29000000000000
2.59000000000000
2.88000000000000
3.07000000000000
3.25000000000000
3.44000000000000
3.49000000000000
3.55000000000000
3.60000000000000
3.63000000000000
3.65000000000000
3.68000000000000
3.57000000000000
3.47000000000000
3.36000000000000
3.25000000000000
3.15000000000000
3.04000000000000
2.85000000000000
2.67000000000000
2.48000000000000
2.29000000000000
2.11000000000000
1.92000000000000
1.73000000000000
1.55000000000000
1.36000000000000
1.17000000000000
0.990000000000000
0.800000000000000
0.590000000000000
0.370000000000000
0.160000000000000
0.0300000000000000
-0.110000000000000
-0.240000000000000
-0.400000000000000
-0.560000000000000
-0.720000000000000
-0.880000000000000
-1.04000000000000
-1.20000000000000
-1.36000000000000
-1.52000000000000
-1.68000000000000
-1.79000000000000
-1.89000000000000
-2
-2.08000000000000
-2.16000000000000
-2.24000000000000
-2.35000000000000
-2.45000000000000
-2.56000000000000
-2.56000000000000
-2.56000000000000
-2.56000000000000
-2.59000000000000
-2.61000000000000
-2.64000000000000
-2.64000000000000
-2.64000000000000
-2.64000000000000
-2.61000000000000
-2.59000000000000
-2.56000000000000
-2.51000000000000
-2.45000000000000
-2.40000000000000
-2.35000000000000
-2.29000000000000
-2.24000000000000
-2.19000000000000
-2.13000000000000
-2.08000000000000
-2.05000000000000
-2.03000000000000
-2
-1.95000000000000
-1.89000000000000
-1.84000000000000
-1.81000000000000
-1.79000000000000
-1.76000000000000
-1.73000000000000
-1.71000000000000
-1.68000000000000
-1.68000000000000
-1.68000000000000
-1.68000000000000
-1.68000000000000
-1.68000000000000
-1.68000000000000
-1.71000000000000
-1.73000000000000
-1.76000000000000
-1.76000000000000
-1.76000000000000
-1.76000000000000
-1.76000000000000
-1.76000000000000
-1.76000000000000
-1.73000000000000
-1.71000000000000
-1.68000000000000
-1.65000000000000
-1.63000000000000
-1.60000000000000
-1.60000000000000
-1.60000000000000
-1.60000000000000
-1.57000000000000
-1.55000000000000
-1.52000000000000
-1.49000000000000
-1.47000000000000
-1.44000000000000
-1.41000000000000
-1.39000000000000
-1.36000000000000
-1.33000000000000
-1.31000000000000
-1.28000000000000
-1.28000000000000
-1.28000000000000
-1.28000000000000
-1.28000000000000
-1.28000000000000
-1.28000000000000
-1.28000000000000
-1.28000000000000
-1.28000000000000
-1.31000000000000
-1.33000000000000
-1.36000000000000
-1.41000000000000
-1.47000000000000
-1.52000000000000
-1.55000000000000
-1.57000000000000
-1.60000000000000
-1.63000000000000
-1.65000000000000
-1.68000000000000
-1.73000000000000
-1.79000000000000
-1.84000000000000
-1.87000000000000
-1.89000000000000
-1.92000000000000
-1.84000000000000
-1.76000000000000
-1.68000000000000
-1.36000000000000
-1.04000000000000
-0.720000000000000
-0.320000000000000
0.0800000000000000
0.480000000000000
1.12000000000000
1.76000000000000
2.40000000000000
3.01000000000000
3.63000000000000
4.24000000000000
4.80000000000000
5.36000000000000
5.92000000000000
6.37000000000000
6.83000000000000
7.28000000000000
7.65000000000000
8.03000000000000
8.40000000000000
8.61000000000000
8.83000000000000
9.04000000000000
9.20000000000000
9.36000000000000
9.52000000000000
9.52000000000000
9.52000000000000
9.52000000000000
9.47000000000000
9.41000000000000
9.36000000000000
9.25000000000000
9.15000000000000
9.04000000000000
8.88000000000000
8.72000000000000
8.56000000000000
8.40000000000000
8.24000000000000
8.08000000000000
7.89000000000000
7.71000000000000
7.52000000000000
7.33000000000000
7.15000000000000
6.96000000000000
6.80000000000000
6.64000000000000
6.48000000000000
6.32000000000000
6.16000000000000
6
5.84000000000000
5.68000000000000
5.52000000000000
5.39000000000000
5.25000000000000
5.12000000000000
5.01000000000000
4.91000000000000
4.80000000000000
4.69000000000000
4.59000000000000
4.48000000000000
4.32000000000000
4.16000000000000
4
3.87000000000000
3.73000000000000
3.60000000000000
3.47000000000000
3.33000000000000
3.20000000000000
3.07000000000000
2.93000000000000
2.80000000000000
2.69000000000000
2.59000000000000
2.48000000000000
2.37000000000000
2.27000000000000
2.16000000000000
2.11000000000000
2.05000000000000
2
1.95000000000000
1.89000000000000
1.84000000000000
1.81000000000000
1.79000000000000
1.76000000000000
1.73000000000000
1.71000000000000
1.68000000000000
1.65000000000000
1.63000000000000
1.60000000000000
1.57000000000000
1.55000000000000
1.52000000000000
1.49000000000000
1.47000000000000
1.44000000000000
1.39000000000000
1.33000000000000
1.28000000000000
1.20000000000000
1.12000000000000
1.04000000000000
0.990000000000000
0.930000000000000
0.880000000000000
0.800000000000000
0.720000000000000
0.640000000000000
0.560000000000000
0.480000000000000
0.400000000000000
0.320000000000000
0.240000000000000
0.160000000000000
0.0800000000000000
0
-0.0800000000000000
-0.130000000000000
-0.190000000000000
-0.240000000000000
-0.320000000000000
-0.400000000000000
-0.480000000000000
-0.510000000000000
-0.530000000000000
-0.560000000000000
-0.610000000000000
-0.670000000000000
-0.720000000000000
-0.770000000000000
-0.830000000000000
-0.880000000000000
-0.910000000000000
-0.930000000000000
-0.960000000000000
-1.01000000000000
-1.07000000000000
-1.12000000000000
-1.20000000000000
-1.28000000000000
-1.36000000000000
-1.44000000000000
-1.52000000000000
-1.60000000000000
-1.68000000000000
-1.76000000000000
-1.84000000000000
-1.95000000000000
-2.05000000000000
-2.16000000000000
-2.27000000000000
-2.37000000000000
-2.48000000000000
-2.59000000000000
-2.69000000000000
-2.80000000000000
-2.91000000000000
-3.01000000000000
-3.12000000000000
-3.17000000000000
-3.23000000000000
-3.28000000000000
-3.33000000000000
-3.39000000000000
-3.44000000000000
-3.25000000000000
-3.07000000000000
-2.88000000000000
-2.59000000000000
-2.29000000000000
-2
-1.47000000000000
-0.930000000000000
-0.400000000000000
0.130000000000000
0.670000000000000
1.20000000000000
1.76000000000000
2.32000000000000
2.88000000000000
3.36000000000000
3.84000000000000
4.32000000000000
4.80000000000000
5.28000000000000
5.76000000000000
5.97000000000000
6.19000000000000
6.40000000000000
6.40000000000000
6.40000000000000
6.88000000000000
6.93000000000000
6.99000000000000
7.04000000000000
7.04000000000000
7.04000000000000
7.04000000000000
6.93000000000000
6.83000000000000
6.72000000000000
6.59000000000000
6.45000000000000
6.32000000000000
6.16000000000000
6
5.84000000000000
5.68000000000000
5.52000000000000
5.36000000000000
5.17000000000000
4.99000000000000
4.80000000000000
4.64000000000000
4.48000000000000
4.32000000000000
4.19000000000000
4.05000000000000
3.92000000000000
3.79000000000000
3.65000000000000
3.52000000000000
3.39000000000000
3.25000000000000
3.12000000000000
3.01000000000000
2.91000000000000
2.80000000000000
2.69000000000000
2.59000000000000
2.48000000000000
2.35000000000000
2.21000000000000
2.08000000000000
1.95000000000000
1.81000000000000
1.68000000000000
1.55000000000000
1.41000000000000
1.28000000000000
1.17000000000000
1.07000000000000
0.960000000000000
0.850000000000000
0.750000000000000
0.640000000000000
0.530000000000000
0.430000000000000
0.320000000000000
0.270000000000000
0.210000000000000
0.160000000000000
0.0800000000000000
0
-0.0800000000000000
-0.110000000000000
-0.130000000000000
-0.160000000000000
-0.190000000000000
-0.210000000000000
-0.240000000000000
-0.290000000000000
-0.350000000000000
-0.400000000000000
-0.430000000000000
-0.450000000000000
-0.480000000000000
-0.530000000000000
-0.590000000000000
-0.640000000000000
-0.690000000000000
-0.750000000000000
-0.800000000000000
-0.880000000000000
-0.960000000000000
-1.04000000000000
-1.15000000000000
-1.25000000000000
-1.36000000000000
-1.41000000000000
-1.47000000000000
-1.52000000000000
-1.57000000000000
-1.63000000000000
-1.68000000000000
-1.76000000000000
-1.84000000000000
-1.92000000000000
-2
-2.08000000000000
-2.16000000000000
-2.19000000000000
-2.21000000000000
-2.24000000000000
-2.27000000000000
-2.29000000000000
-2.32000000000000
-2.37000000000000
-2.43000000000000
-2.48000000000000
-2.51000000000000
-2.53000000000000
-2.56000000000000
-2.56000000000000
-2.56000000000000
-2.56000000000000
-2.59000000000000
-2.61000000000000
-2.64000000000000
-2.69000000000000
-2.75000000000000
-2.80000000000000
-2.83000000000000
-2.85000000000000
-2.88000000000000
-2.91000000000000
-2.93000000000000
-2.96000000000000
-3.01000000000000
-3.07000000000000
-3.12000000000000
-3.17000000000000
-3.23000000000000
-3.28000000000000
-3.33000000000000
-3.39000000000000
-3.44000000000000
-3.52000000000000
-3.60000000000000
-3.68000000000000
-3.76000000000000
-3.84000000000000
-3.92000000000000
-3.97000000000000
-4.03000000000000
-4.08000000000000
-4.16000000000000
-4.24000000000000
-4.32000000000000
-4.32000000000000
-4.32000000000000
-4.32000000000000
-4.16000000000000
-4
-3.84000000000000
-3.52000000000000
-3.20000000000000
-2.88000000000000
-2.37000000000000
-1.87000000000000
-1.36000000000000
-0.750000000000000
-0.130000000000000
0.480000000000000
1.04000000000000
1.60000000000000
2.16000000000000
2.67000000000000
3.17000000000000
3.68000000000000
4.05000000000000
4.43000000000000
4.80000000000000
5.07000000000000
5.33000000000000
5.60000000000000
5.76000000000000
5.92000000000000
6.08000000000000
6.13000000000000
6.19000000000000
6.24000000000000
6.24000000000000
6.24000000000000
6.24000000000000
6.13000000000000
6.03000000000000
5.92000000000000
5.79000000000000
5.65000000000000
5.52000000000000
5.36000000000000
5.20000000000000
5.04000000000000
4.88000000000000
4.72000000000000
4.56000000000000
4.40000000000000
4.24000000000000
4.08000000000000
3.92000000000000
3.76000000000000
3.60000000000000
3.44000000000000
3.28000000000000
3.12000000000000
3.01000000000000
2.91000000000000
2.80000000000000
2.69000000000000
2.59000000000000
2.48000000000000
2.37000000000000
2.27000000000000
2.16000000000000
2.05000000000000
1.95000000000000
1.84000000000000
1.73000000000000
1.63000000000000
1.52000000000000
1.44000000000000
1.36000000000000
1.28000000000000
1.20000000000000
1.12000000000000
1.04000000000000
0.930000000000000
0.830000000000000
0.720000000000000
0.640000000000000
0.560000000000000
0.480000000000000
0.400000000000000
0.320000000000000
0.240000000000000
0.160000000000000
0.0800000000000000
0
-0.0800000000000000
-0.160000000000000
-0.240000000000000
-0.270000000000000
-0.290000000000000
-0.320000000000000
-0.370000000000000
-0.430000000000000
-0.480000000000000
-0.510000000000000
-0.530000000000000
-0.560000000000000
-0.610000000000000
-0.670000000000000
-0.720000000000000
-0.770000000000000
-0.830000000000000
-0.880000000000000
-0.910000000000000
-0.930000000000000
-0.960000000000000
-1.01000000000000
-1.07000000000000
-1.12000000000000
-1.20000000000000
-1.28000000000000
-1.36000000000000
-1.44000000000000
-1.52000000000000
-1.60000000000000
-1.65000000000000
-1.71000000000000
-1.76000000000000
-1.84000000000000
-1.92000000000000
-2
-2.08000000000000
-2.16000000000000
-2.24000000000000
-2.32000000000000
-2.40000000000000
-2.48000000000000
-2.53000000000000
-2.59000000000000
-2.64000000000000
-2.69000000000000
-2.75000000000000
-2.80000000000000
-2.85000000000000
-2.91000000000000
-2.96000000000000
-2.99000000000000
-3.01000000000000
-3.04000000000000
-3.07000000000000
-3.09000000000000
-3.12000000000000
-3.12000000000000
-3.12000000000000
-3.12000000000000
-3.15000000000000
-3.17000000000000
-3.20000000000000
-3.23000000000000
-3.25000000000000
-3.28000000000000
-3.33000000000000
-3.39000000000000
-3.44000000000000
-3.52000000000000
-3.60000000000000
-3.68000000000000
-3.73000000000000
-3.79000000000000
-3.84000000000000
-3.89000000000000
-3.95000000000000
-4
-4.05000000000000
-4.11000000000000
-4.16000000000000
-4.24000000000000
-4.32000000000000
-4.40000000000000
-4.51000000000000
-4.61000000000000
-4.72000000000000
-4.80000000000000
-4.88000000000000
-4.96000000000000
-5.04000000000000
-5.12000000000000
-5.20000000000000
-5.12000000000000
-5.04000000000000
-4.96000000000000
-4.77000000000000
-4.59000000000000
-4.40000000000000
-3.97000000000000
-3.55000000000000
-3.12000000000000
-2.56000000000000
-2
-1.44000000000000
-0.800000000000000
-0.160000000000000
0.480000000000000
1.04000000000000
1.60000000000000
2.16000000000000
2.72000000000000
3.28000000000000
3.84000000000000
4.16000000000000
4.48000000000000
4.80000000000000
5.04000000000000
5.28000000000000
5.52000000000000
5.63000000000000
5.73000000000000
5.84000000000000
5.87000000000000
5.89000000000000
5.92000000000000
5.84000000000000
5.76000000000000
5.68000000000000
5.55000000000000
5.41000000000000
5.28000000000000
5.12000000000000
4.96000000000000
4.80000000000000
4.59000000000000
4.37000000000000
4.16000000000000
3.97000000000000
3.79000000000000
3.60000000000000
3.39000000000000
3.17000000000000
2.96000000000000
2.77000000000000
2.59000000000000
2.40000000000000
2.21000000000000
2.03000000000000
1.84000000000000
1.68000000000000
1.52000000000000
1.36000000000000
1.17000000000000
0.990000000000000
0.800000000000000
0.670000000000000
0.530000000000000
0.400000000000000
0.270000000000000
0.130000000000000
0
-0.160000000000000
-0.320000000000000
-0.480000000000000
-0.640000000000000
-0.800000000000000
-0.960000000000000
-1.17000000000000
-1.39000000000000
-1.60000000000000
-1.76000000000000
-1.92000000000000
-2.08000000000000
-2.27000000000000
-2.45000000000000
-2.64000000000000
-2.75000000000000
-2.85000000000000
-2.96000000000000
-3.09000000000000
-3.23000000000000
-3.36000000000000
-3.47000000000000
-3.57000000000000
-3.68000000000000
-3.76000000000000
-3.84000000000000
-3.92000000000000
-4.03000000000000
-4.13000000000000
-4.24000000000000
-4.32000000000000
-4.40000000000000
-4.48000000000000
-4.56000000000000
-4.64000000000000
-4.72000000000000
-4.80000000000000
-4.88000000000000
-4.96000000000000
-5.07000000000000
-5.17000000000000
-5.28000000000000
-5.39000000000000
-5.49000000000000
-5.60000000000000
-5.73000000000000
-5.87000000000000
-6
-6.11000000000000
-6.21000000000000
-6.32000000000000
-6.45000000000000
-6.59000000000000
-6.72000000000000
-6.88000000000000
-7.04000000000000
-7.20000000000000
-7.33000000000000
-7.47000000000000
-7.60000000000000
-7.76000000000000
-7.92000000000000
-8.08000000000000
-8.21000000000000
-8.35000000000000
-8.48000000000000
-8.61000000000000
-8.75000000000000
-8.88000000000000
-8.99000000000000
-9.09000000000000
-9.20000000000000
-9.33000000000000
-9.47000000000000
-9.60000000000000
-9.73000000000000
-9.87000000000000
-10
-10.0300000000000
-10.0500000000000
-10.0800000000000
-10.1100000000000
-10.1300000000000
-10.1600000000000
-10.1600000000000
-10.1600000000000
-10.1600000000000
-10.1600000000000
-10.1600000000000
-10.1600000000000
-10.1600000000000
-10.1600000000000
-10.1600000000000
-10.1600000000000
-10.1600000000000
-10.1600000000000
-10.1600000000000
-10.1600000000000
-10.1600000000000
-10.1600000000000
-10.1600000000000
-10.1600000000000
-10.1600000000000
-10.1600000000000
-10.1600000000000
-10.1600000000000
-10.1600000000000
-10.1600000000000
-10.1600000000000
-10.1600000000000
-10.1600000000000
-10.1600000000000
-10.1600000000000
-10.1600000000000
-10.1600000000000
-10.1600000000000
-10.1600000000000
-10.1600000000000
-10.1600000000000
-10.1600000000000
-10.1600000000000
-10.1600000000000
-10.1600000000000
-10.1300000000000
-10.1100000000000
-10.0800000000000
-9.97000000000000
-9.87000000000000
-9.76000000000000
-9.33000000000000
-8.91000000000000
-8.48000000000000
-7.76000000000000
-7.04000000000000
-6.32000000000000
-5.73000000000000
-5.15000000000000
-4.56000000000000
-3.97000000000000
-3.39000000000000
-2.80000000000000
-2.51000000000000
-2.21000000000000
-1.92000000000000
-1.65000000000000
-1.39000000000000
-1.12000000000000
-1.01000000000000
-0.910000000000000
-0.800000000000000
-0.770000000000000
-0.750000000000000
-0.720000000000000
-0.800000000000000
-0.880000000000000
-0.960000000000000
-1.07000000000000
-1.17000000000000
-1.28000000000000
-1.44000000000000
-1.60000000000000
-1.76000000000000
-1.97000000000000
-2.19000000000000
-2.40000000000000
-2.61000000000000
-2.83000000000000
-3.04000000000000
-3.25000000000000
-3.47000000000000
-3.68000000000000
-3.89000000000000
-4.11000000000000
-4.32000000000000
-4.53000000000000
-4.75000000000000
-4.96000000000000
-5.15000000000000
-5.33000000000000
-5.52000000000000
-5.73000000000000
-5.95000000000000
-6.16000000000000
-6.32000000000000
-6.48000000000000
-6.64000000000000
-6.83000000000000
-7.01000000000000
-7.20000000000000
-7.39000000000000
-7.57000000000000
-7.76000000000000
-7.92000000000000
-8.08000000000000
-8.24000000000000
-8.40000000000000
-8.56000000000000
-8.72000000000000
-8.72000000000000
-8.72000000000000
-9.04000000000000
-9.15000000000000
-9.25000000000000
-9.36000000000000
-9.39000000000000
-9.41000000000000
-9.44000000000000
-9.47000000000000
-9.49000000000000
-9.52000000000000
-9.52000000000000
-9.52000000000000
-9.52000000000000
-9.52000000000000
-9.52000000000000
-9.52000000000000
-9.52000000000000
-9.52000000000000
-9.52000000000000
-9.49000000000000
-9.47000000000000
-9.44000000000000
-9.41000000000000
-9.39000000000000
-9.36000000000000
-9.36000000000000
-9.36000000000000
-9.36000000000000
-9.39000000000000
-9.41000000000000
-9.44000000000000
-9.49000000000000
-9.55000000000000
-9.60000000000000
-9.65000000000000
-9.71000000000000
-9.76000000000000
-9.81000000000000
-9.87000000000000
-9.92000000000000
-9.95000000000000
-9.97000000000000
-10
-10.0500000000000
-10.1100000000000
-10.1600000000000
-10.1600000000000
-10.1600000000000
-10.1600000000000
-10.1600000000000
-10.1600000000000
-10.1600000000000
-10.1600000000000
-10.1600000000000
-10.1600000000000
-10.1600000000000
-10.1600000000000
-10.1600000000000
-10.1600000000000
-10.1600000000000
-10.1600000000000
-10.1600000000000
-10.1600000000000
-10.1600000000000
-10.1600000000000
-10.1600000000000
-10.1600000000000
-10.1600000000000
-10.1600000000000
-10.1600000000000
-10.1600000000000
-10.1600000000000
-10.1600000000000
-10.1600000000000
-10.1600000000000
-10.1600000000000
-10.1600000000000
-10.1600000000000
-10.1600000000000
-10.1600000000000
-10.1600000000000
-10.1600000000000
-10.1600000000000
-10.1600000000000
-10.1600000000000
-10.1600000000000
-10.1600000000000
-10.1600000000000
-10.1600000000000
-10.1600000000000
-10.1600000000000
-10.1300000000000
-10.1100000000000
-10.0800000000000
-10.0800000000000
-10.0800000000000
-10.0800000000000
-10
-9.92000000000000
-9.84000000000000
-9.73000000000000
-9.63000000000000
-9.52000000000000
-9.17000000000000
-8.83000000000000
-8.48000000000000
-8.08000000000000
-7.68000000000000
-7.28000000000000
-6.59000000000000
-5.89000000000000
-5.20000000000000
-4.51000000000000
-3.81000000000000
-3.12000000000000
-2.43000000000000
-1.73000000000000
-1.04000000000000
-0.450000000000000
0.130000000000000
0.720000000000000
1.20000000000000
1.68000000000000
2.16000000000000
2.45000000000000
2.75000000000000
3.04000000000000
3.31000000000000
3.57000000000000
3.84000000000000
3.89000000000000
3.95000000000000
4
4.08000000000000
4.16000000000000
4.24000000000000
4.16000000000000
4.08000000000000
4
3.89000000000000
3.79000000000000
3.68000000000000
3.57000000000000
3.47000000000000
3.36000000000000
3.20000000000000
3.04000000000000
2.88000000000000
2.69000000000000
2.51000000000000
2.32000000000000
2.19000000000000
2.05000000000000
1.92000000000000
1.79000000000000
1.65000000000000
1.52000000000000
1.39000000000000
1.25000000000000
1.12000000000000
1.01000000000000
0.910000000000000
0.800000000000000
0.690000000000000
0.590000000000000
0.480000000000000
0.370000000000000
0.270000000000000
0.160000000000000
0.0500000000000000
-0.0500000000000000
-0.160000000000000
-0.240000000000000
-0.320000000000000
-0.400000000000000
-0.480000000000000
-0.560000000000000
-0.640000000000000
-0.690000000000000
-0.750000000000000
-0.800000000000000
-0.830000000000000
-0.850000000000000
-0.880000000000000
-0.910000000000000
-0.930000000000000
-0.960000000000000
-0.990000000000000
-1.01000000000000
-1.04000000000000
-0.990000000000000
-0.930000000000000
-0.880000000000000
-0.850000000000000
-0.830000000000000
-0.800000000000000
-0.770000000000000
-0.750000000000000
-0.720000000000000
-0.670000000000000
-0.610000000000000
-0.560000000000000
-0.530000000000000
-0.510000000000000
-0.480000000000000
-0.450000000000000
-0.430000000000000
-0.400000000000000
-0.370000000000000
-0.350000000000000
-0.320000000000000
-0.320000000000000
-0.320000000000000
-0.320000000000000
-0.350000000000000
-0.370000000000000
-0.400000000000000
-0.430000000000000
-0.450000000000000
-0.480000000000000
-0.530000000000000
-0.590000000000000
-0.640000000000000
-0.670000000000000
-0.690000000000000
-0.720000000000000
-0.750000000000000
-0.770000000000000
-0.800000000000000
-0.830000000000000
-0.850000000000000
-0.880000000000000
-0.910000000000000
-0.930000000000000
-0.960000000000000
-0.960000000000000
-0.960000000000000
-0.960000000000000
-0.960000000000000
-0.960000000000000
-0.960000000000000
-0.960000000000000
-0.960000000000000
-0.960000000000000
-0.990000000000000
-1.01000000000000
-1.04000000000000
-1.04000000000000
-1.04000000000000
-1.04000000000000
-1.07000000000000
-1.09000000000000
-1.12000000000000
-1.17000000000000
-1.23000000000000
-1.28000000000000
-1.31000000000000
-1.33000000000000
-1.36000000000000
-1.41000000000000
-1.47000000000000
-1.52000000000000
-1.57000000000000
-1.63000000000000
-1.68000000000000
-1.76000000000000
-1.84000000000000
-1.92000000000000
-2
-2.08000000000000
-2.16000000000000
-2.19000000000000
-2.21000000000000
-2.24000000000000
-2.29000000000000
-2.35000000000000
-2.40000000000000
-2.27000000000000
-2.13000000000000
-2
-1.76000000000000
-1.52000000000000
-1.28000000000000
-0.800000000000000
-0.320000000000000
0.160000000000000
0.720000000000000
1.28000000000000
1.84000000000000
2.43000000000000
3.01000000000000
3.60000000000000
4.11000000000000
4.61000000000000
5.12000000000000
5.60000000000000
6.08000000000000
6.56000000000000
6.83000000000000
7.09000000000000
7.36000000000000
7.57000000000000
7.79000000000000
8
8.08000000000000
8.16000000000000
8.24000000000000
8.29000000000000
8.35000000000000
8.40000000000000
8.35000000000000
8.29000000000000
8.24000000000000
8.13000000000000
8.03000000000000
7.92000000000000
7.79000000000000
7.65000000000000
7.52000000000000
7.36000000000000
7.20000000000000
7.04000000000000
6.88000000000000
6.72000000000000
6.56000000000000
6.40000000000000
6.24000000000000
6.08000000000000
5.92000000000000
5.76000000000000
5.60000000000000
5.44000000000000
5.28000000000000
5.12000000000000
4.99000000000000
4.85000000000000
4.72000000000000
4.59000000000000
4.45000000000000
4.32000000000000
4.21000000000000
4.11000000000000
4
3.92000000000000
3.84000000000000
3.76000000000000
3.65000000000000
3.55000000000000
3.44000000000000
3.33000000000000
3.23000000000000
3.12000000000000
3.01000000000000
2.91000000000000
2.80000000000000
2.72000000000000
2.64000000000000
2.56000000000000
2.45000000000000
2.35000000000000
2.24000000000000
2.19000000000000
2.13000000000000
2.08000000000000
2
1.92000000000000
1.84000000000000
1.79000000000000
1.73000000000000
1.68000000000000
1.65000000000000
1.63000000000000
1.60000000000000
1.57000000000000
1.55000000000000
1.52000000000000
1.47000000000000
1.41000000000000
1.36000000000000
1.31000000000000
1.25000000000000
1.20000000000000
1.17000000000000
1.15000000000000
1.12000000000000
1.07000000000000
1.01000000000000
0.960000000000000
0.910000000000000
0.850000000000000
0.800000000000000
0.720000000000000
0.640000000000000
0.560000000000000
0.480000000000000
0.400000000000000
0.320000000000000
0.240000000000000
0.160000000000000
0.0800000000000000
-0.0300000000000000
-0.130000000000000
-0.240000000000000
-0.290000000000000
-0.350000000000000
-0.400000000000000
-0.480000000000000
-0.560000000000000
-0.640000000000000
-0.690000000000000
-0.750000000000000
-0.800000000000000
-0.830000000000000
-0.850000000000000
-0.880000000000000
-0.930000000000000
-0.990000000000000
-1.04000000000000
-1.09000000000000
-1.15000000000000
-1.20000000000000
-1.25000000000000
-1.31000000000000
-1.36000000000000
-1.39000000000000
-1.41000000000000
-1.44000000000000
-1.49000000000000
-1.55000000000000
-1.60000000000000
-1.68000000000000
-1.76000000000000
-1.84000000000000
-1.92000000000000
-2
-2.08000000000000
-2.16000000000000
-2.24000000000000
-2.32000000000000
-2.40000000000000
-2.48000000000000
-2.56000000000000
-2.67000000000000
-2.77000000000000
-2.88000000000000
-2.99000000000000
-3.09000000000000
-3.20000000000000
-3.28000000000000
-3.36000000000000
-3.44000000000000
-3.52000000000000
-3.60000000000000
-3.68000000000000
-3.68000000000000
-3.68000000000000
-3.68000000000000
-3.57000000000000
-3.47000000000000
-3.36000000000000
-2.99000000000000
-2.61000000000000
-2.24000000000000
-1.79000000000000
-1.33000000000000
-0.880000000000000
-0.240000000000000
0.400000000000000
1.04000000000000
1.65000000000000
2.27000000000000
2.88000000000000
3.41000000000000
3.95000000000000
4.48000000000000
4.91000000000000
5.33000000000000
5.76000000000000
6.08000000000000
6.40000000000000
6.72000000000000
6.85000000000000
6.99000000000000
7.12000000000000
7.23000000000000
7.33000000000000
7.44000000000000
7.41000000000000
7.39000000000000
7.36000000000000
7.28000000000000
7.20000000000000
7.12000000000000
6.99000000000000
6.85000000000000
6.72000000000000
6.56000000000000
6.40000000000000
6.24000000000000
6.08000000000000
5.92000000000000
5.76000000000000
5.60000000000000
5.44000000000000
5.28000000000000
5.09000000000000
4.91000000000000
4.72000000000000
4.59000000000000
4.45000000000000
4.32000000000000
4.16000000000000
4
3.84000000000000
3.73000000000000
3.63000000000000
3.52000000000000
3.41000000000000
3.31000000000000
3.20000000000000
3.09000000000000
2.99000000000000
2.88000000000000
2.77000000000000
2.67000000000000
2.56000000000000
2.45000000000000
2.35000000000000
2.24000000000000
2.13000000000000
2.03000000000000
1.92000000000000
1.79000000000000
1.65000000000000
1.52000000000000
1.41000000000000
1.31000000000000
1.20000000000000
1.12000000000000
1.04000000000000
0.960000000000000
0.880000000000000
0.800000000000000
0.720000000000000
0.670000000000000
0.610000000000000
0.560000000000000
0.480000000000000
0.400000000000000
0.320000000000000
0.290000000000000
0.270000000000000
0.240000000000000
0.190000000000000
0.130000000000000
0.0800000000000000
0.0300000000000000
-0.0300000000000000
-0.0800000000000000
-0.130000000000000
-0.190000000000000
-0.240000000000000
-0.290000000000000
-0.350000000000000
-0.400000000000000
-0.480000000000000
-0.560000000000000
-0.640000000000000
-0.750000000000000
-0.850000000000000
-0.960000000000000
-1.07000000000000
-1.17000000000000
-1.28000000000000
-1.36000000000000
-1.44000000000000
-1.52000000000000
-1.63000000000000
-1.73000000000000
-1.84000000000000
-1.92000000000000
-2
-2.08000000000000
-2.16000000000000
-2.24000000000000
-2.32000000000000
-2.37000000000000
-2.43000000000000
-2.48000000000000
-2.53000000000000
-2.59000000000000
-2.64000000000000
-2.67000000000000
-2.69000000000000
-2.72000000000000
-2.77000000000000
-2.83000000000000
-2.88000000000000
-2.88000000000000
-2.88000000000000
-2.88000000000000
-2.91000000000000
-2.93000000000000
-2.96000000000000
-2.99000000000000
-3.01000000000000
-3.04000000000000
-3.07000000000000
-3.09000000000000
-3.12000000000000
-3.17000000000000
-3.23000000000000
-3.28000000000000
-3.31000000000000
-3.33000000000000
-3.36000000000000
-3.41000000000000
-3.47000000000000
-3.52000000000000
-3.57000000000000
-3.63000000000000
-3.68000000000000
-3.76000000000000
-3.84000000000000
-3.92000000000000
-4
-4.08000000000000
-4.16000000000000
-4.24000000000000
-4.32000000000000
-4.40000000000000
-4.48000000000000
-4.56000000000000
-4.64000000000000
-4.69000000000000
-4.75000000000000
-4.80000000000000
-4.83000000000000
-4.85000000000000
-4.88000000000000
-4.75000000000000
-4.61000000000000
-4.48000000000000
-4.16000000000000
-3.84000000000000
-3.52000000000000
-3.04000000000000
-2.56000000000000
-2.08000000000000
-1.49000000000000
-0.910000000000000
-0.320000000000000
0.320000000000000
0.960000000000000
1.60000000000000
2.08000000000000
2.56000000000000
3.04000000000000
3.47000000000000
3.89000000000000
4.32000000000000
4.59000000000000
4.85000000000000
5.12000000000000
5.31000000000000
5.49000000000000
5.68000000000000
5.73000000000000
5.79000000000000
5.84000000000000
5.84000000000000
5.84000000000000
5.84000000000000
5.76000000000000
5.68000000000000
5.60000000000000
5.44000000000000
5.28000000000000
5.12000000000000
4.96000000000000
4.80000000000000
4.64000000000000
4.48000000000000
4.32000000000000
4.16000000000000
3.97000000000000
3.79000000000000
3.60000000000000
3.41000000000000
3.23000000000000
3.04000000000000
2.88000000000000
2.72000000000000
2.56000000000000
2.40000000000000
2.24000000000000
2.08000000000000
1.97000000000000
1.87000000000000
1.76000000000000
1.63000000000000
1.49000000000000
1.36000000000000
1.25000000000000
1.15000000000000
1.04000000000000
0.960000000000000
0.880000000000000
0.800000000000000
0.690000000000000
0.590000000000000
0.480000000000000
0.370000000000000
0.270000000000000
0.160000000000000
0.0500000000000000
-0.0500000000000000
-0.160000000000000
-0.270000000000000
-0.370000000000000
-0.480000000000000
-0.560000000000000
-0.640000000000000
-0.720000000000000
-0.830000000000000
-0.930000000000000
-1.04000000000000
-1.12000000000000
-1.20000000000000
-1.28000000000000
-1.33000000000000
-1.39000000000000
-1.44000000000000
-1.47000000000000
-1.49000000000000
-1.52000000000000
-1.55000000000000
-1.57000000000000
-1.60000000000000
-1.63000000000000
-1.65000000000000
-1.68000000000000
-1.73000000000000
-1.79000000000000
-1.84000000000000
-1.87000000000000
-1.89000000000000
-1.92000000000000
-1.97000000000000
-2.03000000000000
-2.08000000000000
-2.19000000000000
-2.29000000000000
-2.40000000000000
-2.48000000000000
-2.56000000000000
-2.64000000000000
-2.75000000000000
-2.85000000000000
-2.96000000000000
-3.07000000000000
-3.17000000000000
-3.28000000000000
-3.41000000000000
-3.55000000000000
-3.68000000000000
-3.79000000000000
-3.89000000000000
-4
-4.11000000000000
-4.21000000000000
-4.32000000000000
-4.43000000000000
-4.53000000000000
-4.64000000000000
-4.75000000000000
-4.85000000000000
-4.96000000000000
-5.09000000000000
-5.23000000000000
-5.36000000000000
-5.44000000000000
-5.52000000000000
-5.60000000000000
-5.68000000000000
-5.76000000000000
-5.84000000000000
-5.95000000000000
-6.05000000000000
-6.16000000000000
-6.27000000000000
-6.37000000000000
-6.48000000000000
-6.59000000000000
-6.69000000000000
-6.80000000000000
-6.91000000000000
-7.01000000000000
-7.12000000000000
-7.23000000000000
-7.33000000000000
-7.44000000000000
-7.52000000000000
-7.60000000000000
-7.68000000000000
-7.79000000000000
-7.89000000000000
-8
-8.11000000000000
-8.21000000000000
-8.32000000000000
-8.43000000000000
-8.53000000000000
-8.64000000000000
-8.75000000000000
-8.85000000000000
-8.96000000000000
-9.09000000000000
-9.23000000000000
-9.36000000000000
-9.49000000000000
-9.63000000000000
-9.76000000000000
-9.81000000000000
-9.87000000000000
-9.92000000000000
-9.97000000000000
-10.0300000000000
-10.0800000000000
-9.97000000000000
-9.87000000000000
-9.76000000000000
-9.47000000000000
-9.17000000000000
-8.88000000000000
-8.40000000000000
-7.92000000000000
-7.44000000000000
-6.83000000000000
-6.21000000000000
-5.60000000000000
-4.91000000000000
-4.21000000000000
-3.52000000000000
-2.99000000000000
-2.45000000000000
-1.92000000000000
-1.47000000000000
-1.01000000000000
-0.560000000000000
-0.240000000000000
0.0800000000000000
0.400000000000000
0.590000000000000
0.770000000000000
0.960000000000000
1.04000000000000
1.12000000000000
1.20000000000000
1.17000000000000
1.15000000000000
1.12000000000000
1.04000000000000
0.960000000000000
0.880000000000000
0.750000000000000
0.610000000000000
0.480000000000000
0.320000000000000
0.160000000000000
0
-0.210000000000000
-0.430000000000000
-0.640000000000000
-0.850000000000000
-1.07000000000000
-1.28000000000000
-1.49000000000000
-1.71000000000000
-1.92000000000000
-2.16000000000000
-2.40000000000000
-2.64000000000000
-2.85000000000000
-3.07000000000000
-3.28000000000000
-3.47000000000000
-3.65000000000000
-3.84000000000000
-4.03000000000000
-4.21000000000000
-4.40000000000000
-4.61000000000000
-4.83000000000000
-5.04000000000000
-5.23000000000000
-5.41000000000000
-5.60000000000000
-5.76000000000000
-5.92000000000000
-6.08000000000000
-6.21000000000000
-6.35000000000000
-6.48000000000000
-6.59000000000000
-6.69000000000000
-6.80000000000000
-6.91000000000000
-7.01000000000000
-7.12000000000000
-7.20000000000000
-7.28000000000000
-7.36000000000000
-7.41000000000000
-7.47000000000000
-7.52000000000000
-7.57000000000000
-7.63000000000000
-7.68000000000000
-7.68000000000000
-7.68000000000000
-7.68000000000000
-7.71000000000000
-7.73000000000000
-7.76000000000000
-7.79000000000000
-7.81000000000000
-7.84000000000000
-7.84000000000000
-7.84000000000000
-7.84000000000000
-7.87000000000000
-7.89000000000000
-7.92000000000000
-7.95000000000000
-7.97000000000000
-8
-8.03000000000000
-8.05000000000000
-8.08000000000000
-8.13000000000000
-8.19000000000000
-8.24000000000000
-8.32000000000000
-8.40000000000000
-8.48000000000000
-8.56000000000000
-8.64000000000000
-8.72000000000000
-8.77000000000000
-8.83000000000000
-8.88000000000000
-8.96000000000000
-9.04000000000000
-9.12000000000000
-9.23000000000000
-9.33000000000000
-9.44000000000000
-9.52000000000000
-9.60000000000000
-9.68000000000000
-9.73000000000000
-9.79000000000000
-9.84000000000000
-9.89000000000000
-9.95000000000000
-10
-10.0500000000000
-10.1100000000000
-10.1600000000000
-10.1600000000000
-10.1600000000000
-10.1600000000000
-10.1600000000000
-10.1600000000000
-10.1600000000000
-10.1600000000000
-10.1600000000000
-10.1600000000000
-10.1600000000000
-10.1600000000000
-10.1600000000000
-10.1600000000000
-10.1600000000000
-10.1600000000000
-10.1600000000000
-10.1600000000000
-10.1600000000000
-10.1600000000000
-10.1600000000000
-10.1600000000000
-10.1600000000000
-10.1600000000000
-10.1600000000000
-10.1600000000000
-10.1600000000000
-10.1600000000000
-10.1600000000000
-10.1600000000000
-10.1600000000000
-10.1300000000000
-10.1100000000000
-10.0800000000000
-10.0800000000000
-10.0800000000000
-10.0800000000000
-10.1100000000000
-10.1300000000000
-10.1600000000000
-10.1300000000000
-10.1100000000000
-10.0800000000000
-10.0300000000000
-9.97000000000000
-9.92000000000000
-9.79000000000000
-9.65000000000000
-9.52000000000000
-9.17000000000000
-8.83000000000000
-8.48000000000000
-7.97000000000000
-7.47000000000000
-6.96000000000000
-6.29000000000000
-5.63000000000000
-4.96000000000000
-4.24000000000000
-3.52000000000000
-2.80000000000000
-2.08000000000000
-1.36000000000000
-0.640000000000000
-0.160000000000000
0.320000000000000
0.800000000000000
1.25000000000000
1.71000000000000
2.16000000000000
2.43000000000000
2.69000000000000
2.96000000000000
3.12000000000000
3.28000000000000
3.44000000000000
3.49000000000000
3.55000000000000
3.60000000000000
3.57000000000000
3.55000000000000
3.52000000000000
3.41000000000000
3.31000000000000
3.20000000000000
3.07000000000000
2.93000000000000
2.80000000000000
2.64000000000000
2.48000000000000
2.32000000000000
2.13000000000000
1.95000000000000
1.76000000000000
1.57000000000000
1.39000000000000
1.20000000000000
0.990000000000000
0.770000000000000
0.560000000000000
0.400000000000000
0.240000000000000
0.0800000000000000
-0.110000000000000
-0.290000000000000
-0.480000000000000
-0.610000000000000
-0.750000000000000
-0.880000000000000
-1.04000000000000
-1.20000000000000
-1.36000000000000
-1.47000000000000
-1.57000000000000
-1.68000000000000
-1.81000000000000
-1.95000000000000
-2.08000000000000
-2.19000000000000
-2.29000000000000
-2.40000000000000
-2.43000000000000
-2.45000000000000
-2.48000000000000
-2.51000000000000
-2.53000000000000
-2.56000000000000
-2.56000000000000
-2.56000000000000
-2.56000000000000
-2.56000000000000
-2.56000000000000
-2.56000000000000
-2.53000000000000
-2.51000000000000
-2.48000000000000
-2.45000000000000
-2.43000000000000
-2.40000000000000
-2.35000000000000
-2.29000000000000
-2.24000000000000
-2.19000000000000
-2.13000000000000
-2.08000000000000
-2.03000000000000
-1.97000000000000
-1.92000000000000
-1.92000000000000
-1.92000000000000
-1.92000000000000
-1.89000000000000
-1.87000000000000
-1.84000000000000
-1.84000000000000
-1.84000000000000
-1.84000000000000
-1.84000000000000
-1.84000000000000
-1.84000000000000
-1.84000000000000
-1.84000000000000
-1.84000000000000
-1.84000000000000
-1.84000000000000
-1.84000000000000
-1.84000000000000
-1.84000000000000
-1.84000000000000
-1.84000000000000
-1.84000000000000
-1.84000000000000
-1.84000000000000
-1.84000000000000
-1.84000000000000
-1.81000000000000
-1.79000000000000
-1.76000000000000
-1.73000000000000
-1.71000000000000
-1.68000000000000
-1.65000000000000
-1.63000000000000
-1.60000000000000
-1.57000000000000
-1.55000000000000
-1.52000000000000
-1.49000000000000
-1.47000000000000
-1.44000000000000
-1.44000000000000
-1.44000000000000
-1.44000000000000
-1.41000000000000
-1.39000000000000
-1.36000000000000
-1.36000000000000
-1.36000000000000
-1.36000000000000
-1.33000000000000
-1.31000000000000
-1.28000000000000
-1.28000000000000
-1.28000000000000
-1.28000000000000
-1.28000000000000
-1.28000000000000
-1.28000000000000
-1.31000000000000
-1.33000000000000
-1.36000000000000
-1.39000000000000
-1.41000000000000
-1.44000000000000
-1.49000000000000
-1.55000000000000
-1.60000000000000
-1.63000000000000
-1.65000000000000
-1.68000000000000
-1.65000000000000
-1.63000000000000
-1.60000000000000
-1.44000000000000
-1.28000000000000
-1.12000000000000
-0.750000000000000
-0.370000000000000
0
0
0
1.44000000000000
2.08000000000000
2.72000000000000
3.36000000000000
3.97000000000000
4.59000000000000
5.20000000000000
5.71000000000000
6.21000000000000
6.72000000000000
7.15000000000000
7.57000000000000
8
8.32000000000000
8.64000000000000
8.96000000000000
9.12000000000000
9.28000000000000
9.44000000000000
9.55000000000000
9.65000000000000
9.76000000000000
9.73000000000000
9.71000000000000
9.68000000000000
9.60000000000000
9.52000000000000
9.44000000000000
9.33000000000000
9.23000000000000
9.12000000000000
8.96000000000000
8.80000000000000
8.64000000000000
8.48000000000000
8.32000000000000
8.16000000000000
8
7.84000000000000
7.68000000000000
7.49000000000000
7.31000000000000
7.12000000000000
6.99000000000000
6.85000000000000
6.72000000000000
6.56000000000000
6.40000000000000
6.24000000000000
6.11000000000000
5.97000000000000
5.84000000000000
5.71000000000000
5.57000000000000
5.44000000000000
5.33000000000000
5.23000000000000
5.12000000000000
5.01000000000000
4.91000000000000
4.80000000000000
4.69000000000000
4.59000000000000
4.48000000000000
4.35000000000000
4.21000000000000
4.08000000000000
3.95000000000000
3.81000000000000
3.68000000000000
3.57000000000000
3.47000000000000
3.36000000000000
3.25000000000000
3.15000000000000
3.04000000000000
2.96000000000000
2.88000000000000
2.80000000000000
2.75000000000000
2.69000000000000
2.64000000000000
2.59000000000000
2.53000000000000
2.48000000000000
2.45000000000000
2.43000000000000
2.40000000000000
2.37000000000000
2.35000000000000
2.32000000000000
2.29000000000000
2.27000000000000
2.24000000000000
2.21000000000000
2.19000000000000
2.16000000000000
2.11000000000000
2.05000000000000
2
1.95000000000000
1.89000000000000
1.84000000000000
1.76000000000000
1.68000000000000
1.60000000000000
1.52000000000000
1.44000000000000
1.36000000000000
1.28000000000000
1.20000000000000
1.12000000000000
1.04000000000000
0.960000000000000
0.880000000000000
0.800000000000000
0.720000000000000
0.640000000000000
0.560000000000000
0.480000000000000
0.400000000000000
0.350000000000000
0.290000000000000
0.240000000000000
0.190000000000000
0.130000000000000
0.0800000000000000
0.0500000000000000
0.0300000000000000
0
-0.0500000000000000
-0.110000000000000
-0.160000000000000
-0.210000000000000
-0.270000000000000
-0.320000000000000
-0.350000000000000
-0.370000000000000
-0.400000000000000
-0.450000000000000
-0.510000000000000
-0.560000000000000
-0.640000000000000
-0.720000000000000
-0.800000000000000
-0.880000000000000
-0.960000000000000
-1.04000000000000
-1.09000000000000
-1.15000000000000
-1.20000000000000
-1.28000000000000
-1.36000000000000
-1.44000000000000
-1.55000000000000
-1.65000000000000
-1.76000000000000
-1.87000000000000
-1.97000000000000
-2.08000000000000
-2.19000000000000
-2.29000000000000
-2.40000000000000
-2.51000000000000
-2.61000000000000
-2.72000000000000
-2.80000000000000
-2.88000000000000
-2.96000000000000
-2.85000000000000
-2.75000000000000
-2.64000000000000
-2.43000000000000
-2.21000000000000
-2
-1.55000000000000
-1.09000000000000
-0.640000000000000
-0.130000000000000
0.370000000000000
0.880000000000000
1.47000000000000
2.05000000000000
2.64000000000000
3.12000000000000
3.60000000000000
4.08000000000000
4.56000000000000
5.04000000000000
5.52000000000000
5.76000000000000
6
6.24000000000000
6.43000000000000
6.61000000000000
6.80000000000000
6.88000000000000
6.96000000000000
7.04000000000000
7.07000000000000
7.09000000000000
7.12000000000000
7.07000000000000
7.01000000000000
6.96000000000000
6.83000000000000
6.69000000000000
6.56000000000000
6.40000000000000
6.24000000000000
6.08000000000000
5.92000000000000
5.76000000000000
5.60000000000000
5.41000000000000
5.23000000000000
5.04000000000000
4.88000000000000
4.72000000000000
4.56000000000000
4.40000000000000
4.24000000000000
4.08000000000000
3.92000000000000
3.76000000000000
3.60000000000000
3.47000000000000
3.33000000000000
3.20000000000000
3.09000000000000
2.99000000000000
2.88000000000000
2.83000000000000
2.77000000000000
2.72000000000000
2.64000000000000
2.56000000000000
2.48000000000000
2.37000000000000
2.27000000000000
2.16000000000000
2.05000000000000
1.95000000000000
1.84000000000000
1.73000000000000
1.63000000000000
1.52000000000000
1.41000000000000
1.31000000000000
1.20000000000000
1.09000000000000
0.990000000000000
0.880000000000000
0.830000000000000
0.770000000000000
0.720000000000000
0.640000000000000
0.560000000000000
0.480000000000000
0.430000000000000
0.370000000000000
0.320000000000000
0.290000000000000
0.270000000000000
0.240000000000000
0.190000000000000
0.130000000000000
0.0800000000000000
0.0300000000000000
-0.0300000000000000
-0.0800000000000000
-0.130000000000000
-0.190000000000000
-0.240000000000000
-0.290000000000000
-0.350000000000000
-0.400000000000000
-0.450000000000000
-0.510000000000000
-0.560000000000000
-0.670000000000000
-0.770000000000000
-0.880000000000000
-0.990000000000000
-1.09000000000000
-1.20000000000000
-1.31000000000000
-1.41000000000000
-1.52000000000000
-1.60000000000000
-1.68000000000000
-1.76000000000000
-1.87000000000000
-1.97000000000000
-2.08000000000000
-2.13000000000000
-2.19000000000000
-2.24000000000000
-2.32000000000000
-2.40000000000000
-2.48000000000000
-2.53000000000000
-2.59000000000000
-2.64000000000000
-2.67000000000000
-2.69000000000000
-2.72000000000000
-2.75000000000000
-2.77000000000000
-2.80000000000000
-2.83000000000000
-2.85000000000000
-2.88000000000000
-2.91000000000000
-2.93000000000000
-2.96000000000000
-2.96000000000000
-2.96000000000000
-2.96000000000000
-2.99000000000000
-3.01000000000000
-3.04000000000000
-3.07000000000000
-3.09000000000000
-3.12000000000000
-3.17000000000000
-3.23000000000000
-3.28000000000000
-3.33000000000000
-3.39000000000000
-3.44000000000000
-3.49000000000000
-3.55000000000000
-3.60000000000000
-3.68000000000000
-3.76000000000000
-3.84000000000000
-3.89000000000000
-3.95000000000000
-4
-4.08000000000000
-4.16000000000000
-4.24000000000000
-4.29000000000000
-4.35000000000000
-4.40000000000000
-4.43000000000000
-4.45000000000000
-4.48000000000000
-4.43000000000000
-4.37000000000000
-4.32000000000000
-4.03000000000000
-3.73000000000000
-3.44000000000000
-3.04000000000000
-2.64000000000000
-2.24000000000000
-1.65000000000000
-1.07000000000000
-0.480000000000000
0.130000000000000
0.750000000000000
1.36000000000000
1.89000000000000
2.43000000000000
2.96000000000000
3.41000000000000
3.87000000000000
4.32000000000000
4.64000000000000
4.96000000000000
5.28000000000000
5.47000000000000
5.65000000000000
5.84000000000000
6
6.16000000000000
6.32000000000000
6.29000000000000
6.27000000000000
6.24000000000000
6.19000000000000
6.13000000000000
6.08000000000000
5.95000000000000
5.81000000000000
5.68000000000000
5.52000000000000
5.36000000000000
5.20000000000000
5.04000000000000
4.88000000000000
4.72000000000000
4.53000000000000
4.35000000000000
4.16000000000000
3.97000000000000
3.79000000000000
3.60000000000000
3.44000000000000
3.28000000000000
3.12000000000000
2.96000000000000
2.80000000000000
2.64000000000000
2.53000000000000
2.43000000000000
2.32000000000000
2.19000000000000
2.05000000000000
1.92000000000000
1.81000000000000
1.71000000000000
1.60000000000000
1.52000000000000
1.44000000000000
1.36000000000000
1.25000000000000
1.15000000000000
1.04000000000000
0.910000000000000
0.770000000000000
0.640000000000000
0.510000000000000
0.370000000000000
0.240000000000000
0.130000000000000
0.0300000000000000
-0.0800000000000000
-0.160000000000000
-0.240000000000000
-0.320000000000000
-0.430000000000000
-0.530000000000000
-0.640000000000000
-0.690000000000000
-0.750000000000000
-0.800000000000000
-0.850000000000000
-0.910000000000000
-0.960000000000000
-0.990000000000000
-1.01000000000000
-1.04000000000000
-1.07000000000000
-1.09000000000000
-1.12000000000000
-1.12000000000000
-1.12000000000000
-1.12000000000000
-1.15000000000000
-1.17000000000000
-1.20000000000000
-1.23000000000000
-1.25000000000000
-1.28000000000000
-1.33000000000000
-1.39000000000000
-1.44000000000000
-1.52000000000000
-1.60000000000000
-1.68000000000000
-1.71000000000000
-1.73000000000000
-1.76000000000000
-1.81000000000000
-1.87000000000000
-1.92000000000000
-2.03000000000000
-2.13000000000000
-2.24000000000000
-2.32000000000000
-2.40000000000000
-2.48000000000000
-2.53000000000000
-2.59000000000000
-2.64000000000000
-2.69000000000000
-2.75000000000000
-2.80000000000000
-2.88000000000000
-2.96000000000000
-3.04000000000000
-3.07000000000000
-3.09000000000000
-3.12000000000000
-3.15000000000000
-3.17000000000000
-3.20000000000000
-3.23000000000000
-3.25000000000000
-3.28000000000000
-3.31000000000000
-3.33000000000000
-3.36000000000000
-3.36000000000000
-3.36000000000000
-3.36000000000000
-3.39000000000000
-3.41000000000000
-3.44000000000000
-3.49000000000000
-3.55000000000000
-3.60000000000000
-3.63000000000000
-3.65000000000000
-3.68000000000000
-3.73000000000000
-3.79000000000000
-3.84000000000000
-3.89000000000000
-3.95000000000000
-4
-4.05000000000000
-4.11000000000000
-4.16000000000000
-4.24000000000000
-4.32000000000000
-4.40000000000000
-4.48000000000000
-4.56000000000000
-4.64000000000000
-4.72000000000000
-4.80000000000000
-4.88000000000000
-4.93000000000000
-4.99000000000000
-5.04000000000000
-5.07000000000000
-5.09000000000000
-5.12000000000000
-5.01000000000000
-4.91000000000000
-4.80000000000000
-4.53000000000000
-4.27000000000000
-4
-3.52000000000000
-3.04000000000000
-2.56000000000000
-1.97000000000000
-1.39000000000000
-0.800000000000000
-0.160000000000000
0.480000000000000
1.12000000000000
1.63000000000000
2.13000000000000
2.64000000000000
3.09000000000000
3.55000000000000
4
4.29000000000000
4.59000000000000
4.88000000000000
5.07000000000000
5.25000000000000
5.44000000000000
5.52000000000000
5.60000000000000
5.68000000000000
5.68000000000000
5.68000000000000
5.68000000000000
5.60000000000000
5.52000000000000
5.44000000000000
5.28000000000000
5.12000000000000
4.96000000000000
4.80000000000000
4.64000000000000
4.48000000000000
4.27000000000000
4.05000000000000
3.84000000000000
3.65000000000000
3.47000000000000
3.28000000000000
3.09000000000000
2.91000000000000
2.72000000000000
2.53000000000000
2.35000000000000
2.16000000000000
1.97000000000000
1.79000000000000
1.60000000000000
1.47000000000000
1.33000000000000
1.20000000000000
1.07000000000000
0.930000000000000
0.800000000000000
0.670000000000000
0.530000000000000
0.400000000000000
0.400000000000000
0.400000000000000
0
-0.160000000000000
-0.320000000000000
-0.480000000000000
-0.640000000000000
-0.800000000000000
-0.960000000000000
-1.15000000000000
-1.33000000000000
-1.52000000000000
-1.65000000000000
-1.79000000000000
-1.92000000000000
-2.08000000000000
-2.24000000000000
-2.40000000000000
-2.51000000000000
-2.61000000000000
-2.72000000000000
-2.80000000000000
-2.88000000000000
-2.96000000000000
-3.04000000000000
-3.12000000000000
-3.20000000000000
-3.28000000000000
-3.36000000000000
-3.44000000000000
-3.52000000000000
-3.60000000000000
-3.68000000000000
-3.73000000000000
-3.79000000000000
-3.84000000000000
-3.92000000000000
-4
-4.08000000000000
-4.19000000000000
-4.29000000000000
-4.40000000000000
-4.51000000000000
-4.61000000000000
-4.72000000000000
-4.83000000000000
-4.93000000000000
-5.04000000000000
-5.15000000000000
-5.25000000000000
-5.36000000000000
-5.49000000000000
-5.63000000000000
-5.76000000000000
-5.87000000000000
-5.97000000000000
-6.08000000000000
-6.21000000000000
-6.35000000000000
-6.48000000000000
-6.61000000000000
-6.75000000000000
-6.88000000000000
-7.01000000000000
-7.15000000000000
-7.28000000000000
-7.39000000000000
-7.49000000000000
-7.60000000000000
-7.73000000000000
-7.87000000000000
-8
-8.13000000000000
-8.27000000000000
-8.40000000000000
-8.51000000000000
-8.61000000000000
-8.72000000000000
-8.83000000000000
-8.93000000000000
-9.04000000000000
-9.12000000000000
-9.20000000000000
-9.28000000000000
-9.36000000000000
-9.44000000000000
-9.52000000000000
-9.63000000000000
-9.73000000000000
-9.84000000000000
-9.89000000000000
-9.95000000000000
-10
-10.0500000000000
-10.1100000000000
-10.1600000000000
-10.1600000000000
-10.1600000000000
-10.1600000000000
-10.1600000000000
-10.1600000000000
-10.1600000000000
-10.1600000000000
-10.1600000000000
-10.1600000000000
-10.1600000000000
-10.1600000000000
-10.1600000000000
-10.1600000000000
-10.1600000000000
-10.1600000000000
-10.1600000000000
-10.1600000000000
-10.1600000000000
-10.1600000000000
-10.1600000000000
-10.1600000000000
-10.1600000000000
-10.1600000000000
-10.1600000000000
-10.1600000000000
-10.1600000000000
-10.1600000000000
-10.1600000000000
-10.1600000000000
-10.1600000000000
-10
-9.84000000000000
-9.68000000000000
-9.33000000000000
-8.99000000000000
-8.64000000000000
-8.05000000000000
-7.47000000000000
-6.88000000000000
-6.19000000000000
-5.49000000000000
-4.80000000000000
-4.29000000000000
-3.79000000000000
-3.28000000000000
-2.83000000000000
-2.37000000000000
-1.92000000000000
-1.63000000000000
-1.33000000000000
-1.04000000000000
-0.850000000000000
-0.670000000000000
-0.480000000000000
-0.400000000000000
-0.320000000000000
-0.240000000000000
-0.240000000000000
-0.240000000000000
-0.240000000000000
-0.320000000000000
-0.400000000000000
-0.480000000000000
-0.640000000000000
-0.800000000000000
-0.960000000000000
-1.12000000000000
-1.28000000000000
-1.44000000000000
-1.63000000000000
-1.81000000000000
-2
-2.21000000000000
-2.43000000000000
-2.64000000000000
-2.85000000000000
-3.07000000000000
-3.28000000000000
-3.47000000000000
-3.65000000000000
-3.84000000000000
-4.05000000000000
-4.27000000000000
-4.48000000000000
-4.67000000000000
-4.85000000000000
-5.04000000000000
-5.23000000000000
-5.41000000000000
-5.60000000000000
-5.79000000000000
-5.97000000000000
-6.16000000000000
-6.35000000000000
-6.53000000000000
-6.72000000000000
-6.88000000000000
-7.04000000000000
-7.20000000000000
-7.33000000000000
-7.47000000000000
-7.60000000000000
-7.71000000000000
-7.81000000000000
-7.92000000000000
-7.97000000000000
-8.03000000000000
-8.08000000000000
-8.13000000000000
-8.19000000000000
-8.24000000000000
-8.29000000000000
-8.35000000000000
-8.40000000000000
-8.43000000000000
-8.45000000000000
-8.48000000000000
-8.48000000000000
-8.48000000000000
-8.48000000000000
-8.48000000000000
-8.48000000000000
-8.48000000000000
-8.48000000000000
-8.48000000000000
-8.48000000000000
-8.48000000000000
-8.48000000000000
-8.48000000000000
-8.48000000000000
-8.48000000000000
-8.48000000000000
-8.51000000000000
-8.53000000000000
-8.56000000000000
-8.59000000000000
-8.61000000000000
-8.64000000000000
-8.67000000000000
-8.69000000000000
-8.72000000000000
-8.77000000000000
-8.83000000000000
-8.88000000000000
-8.96000000000000
-9.04000000000000
-9.12000000000000
-9.17000000000000
-9.23000000000000
-9.28000000000000
-9.33000000000000
-9.39000000000000
-9.44000000000000
-9.49000000000000
-9.55000000000000
-9.60000000000000
-9.63000000000000
-9.65000000000000
