0.455
0.46
0.45
0.425
0.435
0.455
0.49
0.5
0.485
0.5
0.495
0.5
0.5
0.515
0.53
0.56
0.57
0.56
0.535
0.535
0.535
0.525
0.51
0.5
0.5
0.49
0.485
0.465
0.46
0.45
0.445
0.44
0.435
0.44
0.445
0.475
0.495
0.5
0.5
0.48
0.45
0.43
0.43
0.445
0.495
0.63
0.88
1.29
1.77
2.19
2.415
2.32
1.985
1.535
1.085
0.75
0.58
0.52
0.525
0.525
0.515
0.49
0.475
0.465
0.45
0.455
0.455
0.465
0.48
0.475
0.49
0.475
0.455
0.46
0.465
0.475
0.475
0.46
0.485
0.485
0.485
0.485
0.495
0.495
0.495
0.495
0.495
0.49
0.485
0.5
0.515
0.53
0.515
0.54
0.555
0.57
0.58
0.595
0.575
0.585
0.6
0.62
0.65
0.665
0.695
0.71
0.725
0.73
0.73
0.75
0.76
0.765
0.755
0.76
0.77
0.775
0.77
0.76
0.755
0.735
0.71
0.685
0.66
0.62
0.6
0.57
0.555
0.54
0.53
0.52
0.505
0.5
0.5
0.495
0.485
0.495
0.485
0.485
0.49
0.465
0.485
0.485
0.49
0.48
0.475
0.475
0.49
0.475
0.46
0.455
0.465
0.475
0.485
0.48
0.48
0.485
0.49
0.49
0.48
0.465
0.45
0.445
0.45
0.45
0.475
0.465
0.455
0.45
0.45
0.475
0.465
0.48
0.485
0.475
0.49
0.48
0.45
0.465
0.475
0.485
0.485
0.465
0.485
0.475
0.475
0.465
0.465
0.475
0.475
0.475
0.475
0.455
0.45
0.44
0.435
0.43
0.45
0.455
0.465
0.465
0.45
0.445
0.445
0.45
0.455
0.45
0.46
0.455
0.455
0.465
0.465
0.475
0.485
0.49
0.485
0.475
0.475
0.455
0.465
0.465
0.475
0.465
0.455
0.44
0.455
0.475
0.51
0.53
0.535
0.54
0.525
0.5
0.5
0.525
0.56
0.57
0.56
0.54
0.535
0.54
0.54
0.53
0.525
0.515
0.495
0.485
0.465
0.455
0.46
0.45
0.455
0.455
0.465
0.475
0.475
0.45
0.44
0.45
0.455
0.48
0.495
0.495
0.5
0.555
0.67
0.965
1.36
1.85
2.26
2.41
2.25
1.835
1.37
0.935
0.685
0.585
0.56
0.555
0.545
0.525
0.495
0.485
0.48
0.485
0.495
0.485
0.465
0.475
0.48
0.495
0.5
0.51
0.51
0.525
0.515
0.5
0.485
0.455
0.475
0.475
0.485
0.495
0.5
0.52
0.535
0.54
0.53
0.525
0.525
0.525
0.53
0.54
0.54
0.56
0.565
0.58
0.58
0.605
0.61
0.62
0.645
0.66
0.68
0.69
0.705
0.715
0.735
0.76
0.77
0.77
0.775
0.79
0.79
0.785
0.77
0.75
0.735
0.71
0.695
0.68
0.655
0.625
0.605
0.61
0.6
0.58
0.555
0.56
0.555
0.535
0.525
0.505
0.495
0.495
0.46
0.49
0.5
0.515
0.51
0.495
0.495
0.49
0.51
0.51
0.505
0.51
0.515
0.5
0.49
0.485
0.49
0.485
0.48
0.475
0.455
0.45
0.455
0.475
0.49
0.495
0.495
0.495
0.495
0.475
0.455
0.455
0.475
0.475
0.48
0.495
0.495
0.495
0.515
0.515
0.515
0.5
0.475
0.485
0.495
0.505
0.505
0.485
0.5
0.495
0.49
0.465
0.465
0.48
0.48
0.475
0.475
0.455
0.48
0.495
0.49
0.485
0.485
0.485
0.48
0.49
0.49
0.495
0.495
0.495
0.495
0.475
0.475
0.495
0.485
0.51
0.495
0.495
0.485
0.49
0.485
0.485
0.495
0.5
0.515
0.495
0.475
0.465
0.475
0.455
0.48
0.49
0.495
0.495
0.495
0.5
0.5
0.5
0.5
0.49
0.5
0.505
0.515
0.515
0.51
0.525
0.525
0.54
0.545
0.565
0.58
0.58
0.595
0.6
0.6
0.58
0.58
0.585
0.58
0.56
0.54
0.525
0.515
0.51
0.515
0.495
0.495
0.495
0.485
0.49
0.485
0.46
0.49
0.485
0.475
0.465
0.455
0.485
0.495
0.5
0.495
0.505
0.605
0.835
1.23
1.675
2.11
2.38
2.405
2.14
1.715
1.25
0.86
0.655
0.57
0.555
0.545
0.555
0.56
0.54
0.53
0.52
0.5
0.49
0.495
0.495
0.495
0.495
0.5
0.505
0.515
0.505
0.495
0.485
0.495
0.5
0.51
0.51
0.515
0.54
0.555
0.565
0.56
0.535
0.525
0.525
0.535
0.56
0.575
0.575
0.56
0.555
0.57
0.58
0.57
0.57
0.58
0.62
0.645
0.67
0.685
0.69
0.71
0.725
0.735
0.75
0.755
0.78
0.79
0.81
0.815
0.83
0.83
0.82
0.795
0.765
0.725
0.71
0.69
0.695
0.685
0.645
0.62
0.605
0.595
0.565
0.57
0.555
0.555
0.54
0.54
0.56
0.545
0.535
0.525
0.51
0.515
0.525
0.535
0.53
0.53
0.505
0.5
0.5
0.51
0.515
0.52
0.515
0.5
0.495
0.495
0.5
0.505
0.52
0.515
0.51
0.51
0.515
0.515
0.515
0.515
0.525
0.51
0.525
0.525
0.515
0.5
0.475
0.495
0.5
0.505
0.51
0.51
0.515
0.52
0.515
0.515
0.52
0.525
0.52
0.525
0.515
0.515
0.515
0.51
0.515
0.515
0.53
0.545
0.555
0.54
0.535
0.525
0.51
0.485
0.475
0.465
0.455
0.48
0.49
0.495
0.495
0.495
0.495
0.485
0.49
0.495
0.5
0.5
0.485
0.5
0.495
0.495
0.495
0.5
0.5
0.5
0.495
0.495
0.49
0.5
0.515
0.535
0.555
0.535
0.51
0.495
0.475
0.465
0.485
0.495
0.51
0.515
0.5
0.485
0.475
0.465
0.49
0.485
0.48
0.46
0.465
0.48
0.5
0.525
0.525
0.515
0.495
0.495
0.5
0.515
0.51
0.525
0.52
0.525
0.525
0.52
0.56
0.59
0.595
0.6
0.61
0.615
0.625
0.615
0.575
0.535
0.53
0.53
0.535
0.515
0.51
0.515
0.515
0.505
0.495
0.485
0.49
0.485
0.495
0.5
0.525
0.535
0.53
0.5
0.485
0.475
0.495
0.515
0.495
0.445
0.425
0.45
0.535
0.81
1.2
1.7
2.175
2.45
2.405
2.095
1.645
1.175
0.815
0.625
0.57
0.57
0.56
0.54
0.535
0.535
0.535
0.525
0.525
0.515
0.48
0.435
0.43
0.455
0.465
0.46
0.465
0.475
0.485
0.495
0.46
0.485
0.475
0.485
0.5
0.535
0.535
0.515
0.5
0.495
0.51
0.51
0.51
0.515
0.5
0.5
0.53
0.54
0.56
0.57
0.59
0.6
0.615
0.63
0.65
0.655
0.665
0.68
0.695
0.715
0.735
0.745
0.75
0.755
0.775
0.805
0.825
0.835
0.83
0.81
0.775
0.73
0.695
0.68
0.665
0.65
0.64
0.62
0.595
0.58
0.565
0.555
0.54
0.535
0.515
0.52
0.515
0.5
0.51
0.495
0.495
0.485
0.46
0.485
0.495
0.495
0.495
0.49
0.515
0.515
0.52
0.49
0.465
0.45
0.45
0.445
0.45
0.465
0.465
0.46
0.475
0.475
0.465
0.465
0.465
0.475
0.465
0.465
0.465
0.475
0.48
0.49
0.48
0.465
0.455
0.465
0.475
0.475
0.465
0.45
0.455
0.475
0.485
0.495
0.485
0.51
0.515
0.495
0.45
0.43
0.415
0.415
0.42
0.415
0.405
0.415
0.415
0.43
0.435
0.445
0.445
0.455
0.455
0.45
0.44
0.435
0.435
0.44
0.45
0.485
0.515
0.515
0.48
0.41
0.365
0.37
0.4
0.41
0.415
0.43
0.425
0.45
0.45
0.44
0.44
0.44
0.425
0.44
0.435
0.44
0.44
0.43
0.45
0.45
0.45
0.44
0.435
0.45
0.445
0.455
0.48
0.475
0.455
0.455
0.455
0.45
0.445
0.44
0.43
0.435
0.43
0.44
0.45
0.455
0.465
0.495
0.495
0.485
0.455
0.43
0.42
0.445
0.46
0.49
0.515
0.52
0.53
0.54
0.535
0.57
0.555
0.555
0.54
0.525
0.535
0.525
0.515
0.5
0.48
0.485
0.475
0.475
0.455
0.435
0.435
0.45
0.455
0.445
0.44
0.44
0.45
0.485
0.485
0.475
0.45
0.45
0.455
0.51
0.665
0.985
1.44
1.92
2.315
2.45
2.265
1.845
1.405
0.98
0.68
0.58
0.535
0.535
0.525
0.505
0.49
0.45
0.46
0.475
0.465
0.475
0.475
0.48
0.465
0.465
0.465
0.475
0.475
0.475
0.475
0.475
0.48
0.475
0.485
0.5
0.505
0.51
0.51
0.51
0.49
0.48
0.48
0.485
0.495
0.51
0.52
0.54
0.54
0.555
0.57
0.58
0.575
0.595
0.61
0.62
0.645
0.655
0.66
0.695
0.68
0.705
0.715
0.725
0.76
0.75
0.765
0.76
0.775
0.77
0.775
0.77
0.745
0.725
0.705
0.67
0.66
0.63
0.605
0.58
0.56
0.555
0.54
0.525
0.51
0.515
0.505
0.495
0.485
0.495
0.485
0.495
0.495
0.495
0.49
0.485
0.485
0.475
0.48
0.485
0.48
0.465
0.485
0.48
0.48
0.475
0.45
0.46
0.455
0.455
0.455
0.455
0.45
0.43
0.435
0.455
0.475
0.49
0.49
0.495
0.49
0.485
0.475
0.46
0.465
0.455
0.465
0.475
0.475
0.475
0.475
0.495
0.49
0.485
0.495
0.495
0.49
0.475
0.465
0.455
0.435
0.44
0.43
0.44
0.445
0.445
0.45
0.45
0.425
0.45
0.445
0.45
0.45
0.435
0.45
0.45
0.455
0.45
0.45
0.45
0.45
0.455
0.45
0.45
0.445
0.45
0.455
0.45
0.445
0.445
0.44
0.445
0.445
0.455
0.45
0.455
0.465
0.475
0.465
0.46
0.45
0.45
0.445
0.45
0.45
0.445
0.45
0.45
0.45
0.455
0.435
0.46
0.455
0.455
0.465
0.45
0.475
0.45
0.435
0.43
0.425
0.44
0.45
0.46
0.455
0.455
0.46
0.475
0.465
0.465
0.465
0.475
0.475
0.485
0.48
0.48
0.495
0.51
0.525
0.53
0.52
0.515
0.525
0.54
0.57
0.58
0.58
0.57
0.545
0.535
0.53
0.53
0.5
0.5
0.5
0.495
0.485
0.455
0.475
0.455
0.45
0.445
0.445
0.45
0.445
0.455
0.455
0.455
0.465
0.495
0.495
0.49
0.485
0.515
0.66
0.965
1.39
1.845
2.195
2.325
2.17
1.81
1.36
0.955
0.68
0.575
0.56
0.57
0.565
0.545
0.535
0.505
0.495
0.465
0.475
0.46
0.455
0.475
0.465
0.455
0.485
0.485
0.48
0.48
0.475
0.495
0.49
0.495
0.495
0.495
0.5
0.5
0.505
0.505
0.51
0.515
0.52
0.525
0.535
0.54
0.555
0.57
0.56
0.58
0.585
0.6
0.605
0.615
0.645
0.655
0.665
0.665
0.675
0.685
0.7
0.73
0.745
0.765
0.78
0.805
0.81
0.845
0.83
0.825
0.815
0.815
0.82
0.79
0.765
0.74
0.71
0.67
0.645
0.62
0.62
0.605
0.6
0.57
0.56
0.535
0.51
0.5
0.5
0.515
0.505
0.51
0.515
0.5
0.495
0.5
0.495
0.5
0.495
0.495
0.495
0.5
0.5
0.5
0.495
0.495
0.49
0.5
0.495
0.485
0.49
0.495
0.49
0.49
0.475
0.495
0.495
0.495
0.485
0.49
0.495
0.495
0.495
0.49
0.485
0.495
0.49
0.5
0.495
0.5
0.5
0.495
0.495
0.495
0.5
0.5
0.51
0.515
0.515
0.51
0.51
0.495
0.495
0.495
0.485
0.485
0.475
0.46
0.475
0.485
0.48
0.485
0.485
0.485
0.48
0.485
0.455
0.485
0.48
0.49
0.485
0.465
0.485
0.49
0.485
0.495
0.495
0.49
0.49
0.495
0.495
0.49
0.495
0.495
0.495
0.495
0.495
0.485
0.465
0.45
0.45
0.465
0.475
0.485
0.495
0.49
0.49
0.49
0.49
0.495
0.49
0.495
0.495
0.495
0.485
0.49
0.5
0.495
0.475
0.495
0.495
0.495
0.5
0.495
0.525
0.545
0.565
0.575
0.585
0.575
0.565
0.56
0.57
0.58
0.575
0.58
0.57
0.57
0.56
0.56
0.555
0.545
0.54
0.525
0.515
0.515
0.5
0.495
0.485
0.485
0.475
0.49
0.495
0.5
0.5
0.5
0.5
0.505
0.505
0.515
0.5
0.515
0.61
0.85
1.245
1.735
2.18
2.48
2.495
2.225
1.79
1.325
0.92
0.685
0.595
0.575
0.57
0.57
0.54
0.53
0.525
0.51
0.5
0.5
0.51
0.515
0.505
0.515
0.51
0.515
0.515
0.515
0.525
0.52
0.515
0.525
0.525
0.525
0.535
0.555
0.555
0.555
0.56
0.555
0.555
0.56
0.565
0.555
0.58
0.585
0.59
0.61
0.625
0.62
0.625
0.64
0.655
0.665
0.68
0.705
0.715
0.73
0.745
0.765
0.78
0.79
0.81
0.81
0.83
0.835
0.83
0.83
0.83
0.835
0.82
0.81
0.775
0.755
0.735
0.725
0.695
0.685
0.655
0.64
0.62
0.6
0.585
0.57
0.565
0.54
0.56
0.56
0.56
0.57
0.53
0.545
0.555
0.555
0.545
0.54
0.56
0.545
0.54
0.555
0.54
0.54
0.535
0.535
0.535
0.535
0.53
0.54
0.555
0.545
0.54
0.535
0.535
0.53
0.535
0.525
0.525
0.5
0.52
0.525
0.535
0.535
0.535
0.555
0.54
0.54
0.53
0.54
0.535
0.535
0.54
0.535
0.52
0.535
0.54
0.54
0.535
0.515
0.53
0.54
0.54
0.535
0.535
0.535
0.53
0.535
0.535
0.525
0.53
0.54
0.535
0.535
0.53
0.52
0.515
0.525
0.515
0.515
0.515
0.515
0.515
0.52
0.515
0.515
0.515
0.52
0.51
0.515
0.52
0.525
0.52
0.515
0.525
0.52
0.51
0.53
0.525
0.54
0.53
0.52
0.535
0.525
0.53
0.525
0.52
0.525
0.525
0.525
0.525
0.52
0.52
0.525
0.535
0.53
0.53
0.535
0.535
0.535
0.54
0.545
0.56
0.54
0.54
0.53
0.525
0.52
0.515
0.525
0.525
0.53
0.52
0.53
0.535
0.535
0.535
0.53
0.515
0.535
0.54
0.545
0.56
0.56
0.58
0.595
0.585
0.58
0.595
0.6
0.62
0.645
0.645
0.63
0.62
0.625
0.61
0.595
0.59
0.595
0.58
0.57
0.54
0.535
0.525
0.515
0.515
0.515
0.53
0.525
0.525
0.52
0.52
0.535
0.53
0.545
0.56
0.56
0.565
0.61
0.73
1.01
1.41
1.865
2.26
2.46
2.35
2.01
1.58
1.14
0.825
0.66
0.61
0.605
0.6
0.585
0.56
0.54
0.54
0.53
0.52
0.525
0.525
0.53
0.53
0.535
0.525
0.535
0.535
0.53
0.54
0.535
0.535
0.54
0.54
0.56
0.54
0.54
0.535
0.535
0.555
0.555
0.545
0.56
0.57
0.575
0.585
0.6
0.58
0.595
0.59
0.61
0.645
0.63
0.65
0.655
0.67
0.695
0.705
0.735
0.745
0.76
0.77
0.78
0.805
0.81
0.815
0.815
0.825
0.825
0.83
0.82
0.795
0.78
0.765
0.75
0.71
0.68
0.665
0.655
0.655
0.64
0.61
0.6
0.585
0.57
0.56
0.56
0.54
0.535
0.54
0.545
0.555
0.54
0.515
0.525
0.525
0.525
0.525
0.52
0.53
0.515
0.515
0.515
0.51
0.535
0.53
0.535
0.52
0.515
0.505
0.515
0.515
0.51
0.51
0.5
0.495
0.5
0.51
0.515
0.51
0.515
0.525
0.525
0.525
0.515
0.51
0.515
0.505
0.51
0.5
0.505
0.51
0.52
0.52
0.52
0.5
0.51
0.51
0.515
0.52
0.495
0.505
0.5
0.495
0.495
0.485
0.495
0.495
0.495
0.485
0.495
0.49
0.49
0.495
0.495
0.485
0.485
0.485
0.475
0.465
0.48
0.485
0.495
0.495
0.495
0.5
0.495
0.5
0.49
0.475
0.475
0.475
0.475
0.485
0.48
0.485
0.49
0.465
0.49
0.49
0.5
0.485
0.465
0.465
0.475
0.475
0.48
0.48
0.485
0.495
0.495
0.5
0.495
0.495
0.49
0.495
0.495
0.495
0.495
0.49
0.49
0.49
0.495
0.5
0.485
0.485
0.475
0.485
0.485
0.465
0.495
0.495
0.495
0.495
0.495
0.495
0.49
0.505
0.505
0.525
0.555
0.56
0.565
0.555
0.535
0.545
0.575
0.585
0.595
0.605
0.58
0.58
0.57
0.56
0.545
0.535
0.525
0.515
0.505
0.495
0.495
0.485
0.49
0.495
0.485
0.485
0.48
0.48
0.49
0.485
0.49
0.485
0.49
0.49
0.485
0.485
0.525
0.68
0.985
1.425
1.9
2.25
2.365
2.155
1.725
1.25
0.875
0.65
0.58
0.565
0.565
0.54
0.54
0.515
0.5
0.49
0.495
0.49
0.485
0.485
0.485
0.485
0.495
0.49
0.49
0.495
0.495
0.495
0.495
0.49
0.495
0.5
0.51
0.51
0.515
0.515
0.525
0.53
0.535
0.53
0.53
0.53
0.535
0.54
0.545
0.56
0.57
0.58
0.61
0.585
0.6
0.615
0.63
0.665
0.665
0.68
0.68
0.7
0.715
0.73
0.755
0.765
0.775
0.77
0.775
0.775
0.79
0.785
0.775
0.765
0.75
0.735
0.71
0.685
0.67
0.655
0.625
0.61
0.585
0.58
0.57
0.57
0.57
0.56
0.535
0.535
0.52
0.515
0.515
0.5
0.5
0.5
0.495
0.51
0.5
0.485
0.505
0.5
0.51
0.495
0.485
0.495
0.485
0.485
0.495
0.485
0.495
0.495
0.49
0.49
0.495
0.495
0.5
0.495
0.5
0.51
0.5
0.5
0.5
0.5
0.49
0.485
0.485
0.485
0.495
0.5
0.5
0.5
0.495
0.495
0.49
0.485
0.485
0.485
0.485
0.495
0.49
0.475
0.495
0.495
0.5
0.485
0.455
0.465
0.475
0.48
0.48
0.48
0.475
0.48
0.48
0.475
0.46
0.45
0.455
0.465
0.48
0.48
0.475
0.475
0.475
0.48
0.48
0.475
0.465
0.475
0.48
0.48
0.49
0.485
0.495
0.48
0.49
0.475
0.475
0.475
0.465
0.485
0.475
0.465
0.48
0.475
0.475
0.475
0.45
0.475
0.465
0.455
0.455
0.46
0.48
0.485
0.485
0.485
0.48
0.48
0.49
0.485
0.485
0.495
0.485
0.475
0.48
0.475
0.485
0.495
0.495
0.505
0.525
0.555
0.545
0.555
0.555
0.535
0.56
0.57
0.58
0.565
0.56
0.545
0.545
0.54
0.535
0.525
0.525
0.515
0.495
0.5
0.495
0.485
0.48
0.46
0.485
0.48
0.485
0.475
0.46
0.45
0.46
0.495
0.5
0.51
0.5
0.495
0.54
0.71
1.045
1.49
1.955
2.305
2.395
2.17
1.75
1.265
0.84
0.605
0.54
0.54
0.56
0.555
0.53
0.51
0.495
0.485
0.495
0.49
0.495
0.48
0.455
0.49
0.495
0.495
0.495
0.485
0.505
0.505
0.51
0.5
0.5
0.51
0.515
0.525
0.525
0.52
0.535
0.54
0.535
0.525
0.525
0.525
0.535
0.54
0.56
0.585
0.59
0.595
0.59
0.605
0.61
0.625
0.655
0.68
0.695
0.705
0.735
0.74
0.75
0.755
0.765
0.79
0.815
0.81
0.83
0.83
0.825
0.825
0.805
0.775
0.75
0.73
0.715
0.675
0.655
0.62
0.61
0.585
0.565
0.545
0.555
0.535
0.525
0.51
0.515
0.525
0.515
0.51
0.51
0.51
0.515
0.505
0.5
0.495
0.495
0.495
0.495
0.5
0.495
0.495
0.5
0.495
0.495
0.49
0.49
0.485
0.485
0.49
0.49
0.48
0.495
0.49
0.49
0.485
0.465
0.48
0.495
0.495
0.495
0.49
0.495
0.485
0.485
0.485
0.49
0.49
0.495
0.485
0.48
0.485
0.485
0.485
0.49
0.485
0.49
0.485
0.485
0.485
0.475
0.475
0.465
0.475
0.475
0.48
0.485
0.475
0.485
0.48
0.48
0.48
0.475
0.445
0.455
0.455
0.465
0.46
0.45
0.465
0.465
0.465
0.475
0.465
0.475
0.485
0.48
0.475
0.46
0.475
0.465
0.475
0.455
0.475
0.475
0.475
0.475
0.475
0.475
0.465
0.475
0.465
0.465
0.475
0.475
0.455
0.46
0.46
0.475
0.475
0.49
0.485
0.485
0.475
0.46
0.475
0.475
0.475
0.475
0.465
0.475
0.51
0.525
0.535
0.525
0.51
0.53
0.54
0.56
0.57
0.56
0.56
0.56
0.56
0.56
0.56
0.54
0.535
0.525
0.505
0.51
0.5
0.495
0.485
0.48
0.475
0.465
0.475
0.48
0.465
0.465
0.45
0.455
0.455
0.475
0.495
0.495
0.51
0.615
0.875
1.29
1.81
2.28
2.49
2.365
1.955
1.45
0.995
0.69
0.585
0.57
0.575
0.56
0.555
0.525
0.495
0.485
0.475
0.475
0.485
0.495
0.495
0.495
0.495
0.495
0.495
0.485
0.485
0.495
0.495
0.5
0.5
0.525
0.525
0.515
0.53
0.535
0.535
0.525
0.515
0.51
0.51
0.53
0.555
0.555
0.56
0.555
0.56
0.575
0.61
0.61
0.62
0.645
0.655
0.67
0.685
0.705
0.725
0.745
0.765
0.775
0.785
0.785
0.785
0.79
0.81
0.81
0.805
0.795
0.78
0.78
0.755
0.71
0.685
0.655
0.645
0.62
0.605
0.6
0.57
0.54
0.525
0.525
0.525
0.535
0.525
0.52
0.51
0.515
0.52
0.525
0.5
0.515
0.515
0.51
0.49
0.475
0.485
0.49
0.5
0.485
0.46
0.455
0.475
0.485
0.49
0.485
0.485
0.475
0.485
0.485
0.485
0.475
0.475
0.485
0.48
0.495
0.495
0.495
0.5
0.5
0.5
0.495
0.495
0.495
0.49
0.52
0.52
0.515
0.495
0.445
0.425
0.415
0.41
0.45
0.455
0.475
0.475
0.45
0.46
0.455
0.45
0.45
0.455
0.465
0.475
0.475
0.475
0.465
0.455
0.46
0.465
0.46
0.465
0.455
0.45
0.455
0.455
0.46
0.465
0.455
0.46
0.465
0.475
0.475
0.445
0.465
0.465
0.475
0.465
0.48
0.48
0.475
0.475
0.46
0.465
0.45
0.45
0.44
0.445
0.435
0.45
0.445
0.435
0.435
0.435
0.455
0.465
0.485
0.49
0.495
0.475
0.45
0.445
0.44
0.435
0.45
0.445
0.46
0.475
0.495
0.515
0.53
0.535
0.54
0.54
0.545
0.54
0.57
0.58
0.575
0.565
0.56
0.545
0.535
0.535
0.515
0.515
0.51
0.495
0.5
0.49
0.465
0.485
0.485
0.51
0.495
0.475
0.485
0.475
0.465
0.465
0.485
0.5
0.495
0.455
0.43
0.465
0.64
0.965
1.455
1.985
2.405
2.555
2.38
1.985
1.525
1.07
0.77
0.625
0.585
0.585
0.565
0.54
0.525
0.5
0.485
0.475
0.475
0.485
0.485
0.485
0.495
0.5
0.5
0.515
0.53
0.535
0.525
0.49
0.48
0.475
0.48
0.485
0.495
0.51
0.505
0.51
0.515
0.525
0.525
0.53
0.545
0.56
0.57
0.56
0.56
0.57
0.6
0.62
0.66
0.665
0.655
0.625
0.63
0.665
0.695
0.73
0.75
0.77
0.79
0.795
0.81
0.81
0.795
0.795
0.805
0.795
0.795
0.78
0.765
0.765
0.735
0.73
0.705
0.68
0.665
0.625
0.61
0.6
0.585
0.58
0.565
0.555
0.535
0.535
0.535
0.535
0.535
0.535
0.525
0.52
0.505
0.51
0.525
0.52
0.525
0.52
0.515
0.515
0.505
0.51
0.515
0.515
0.515
0.525
0.54
0.54
0.535
0.52
0.51
0.515
0.515
0.475
0.49
0.465
0.475
0.485
0.49
0.51
0.515
0.515
0.515
0.51
0.515
0.515
0.515
0.515
0.52
0.52
0.525
0.535
0.535
0.525
0.505
0.485
0.485
0.5
0.51
0.5
0.495
0.485
0.495
0.5
0.495
0.49
0.495
0.5
0.51
0.51
0.515
0.515
0.515
0.52
0.53
0.52
0.54
0.54
0.555
0.535
0.46
0.435
0.43
0.435
0.45
0.445
0.465
0.475
0.485
0.485
0.49
0.495
0.505
0.5
0.5
0.5
0.505
0.5
0.505
0.51
0.5
0.5
0.495
0.495
0.485
0.495
0.495
0.5
0.515
0.5
0.515
0.5
0.5
0.5
0.5
0.51
0.505
0.505
0.505
0.515
0.54
0.535
0.535
0.57
0.585
0.58
0.56
0.525
0.535
0.555
0.58
0.6
0.6
0.59
0.595
0.595
0.58
0.56
0.555
0.535
0.535
0.53
0.52
0.515
0.5
0.495
0.495
0.495
0.485
0.485
0.49
0.49
0.495
0.5
0.505
0.495
0.5
0.5
0.525
0.645
0.905
1.315
1.785
2.205
2.455
2.4
2.07
1.615
1.155
0.79
0.61
0.57
0.58
0.575
0.56
0.54
0.525
0.515
0.52
0.525
0.535
0.535
0.52
0.505
0.51
0.5
0.5
0.505
0.515
0.525
0.53
0.53
0.515
0.505
0.515
0.51
0.5
0.525
0.53
0.54
0.535
0.54
0.555
0.56
0.56
0.56
0.575
0.595
0.62
0.62
0.625
0.645
0.625
0.64
0.66
0.695
0.735
0.725
0.725
0.735
0.75
0.785
0.82
0.84
0.865
0.88
0.895
0.905
0.9
0.88
0.85
0.775
0.73
0.71
0.695
0.695
0.67
0.64
0.61
0.585
0.585
0.575
0.57
0.565
0.56
0.54
0.53
0.525
0.525
0.52
0.515
0.5
0.5
0.485
0.505
0.505
0.515
0.515
0.5
0.515
0.515
0.515
0.51
0.51
0.5
0.485
0.485
0.495
0.495
0.495
0.495
0.5
0.515
0.51
0.495
0.475
0.475
0.475
0.495
0.495
0.5
0.49
0.49
0.495
0.5
0.52
0.53
0.535
0.54
0.54
0.53
0.515
0.495
0.445
0.43
0.41
0.435
0.45
0.465
0.46
0.45
0.475
0.475
0.48
0.475
0.465
0.475
0.475
0.475
0.475
0.46
0.455
0.46
0.465
0.465
0.465
0.46
0.475
0.48
0.475
0.48
0.485
0.485
0.495
0.475
0.485
0.48
0.455
0.48
0.485
0.485
0.465
0.475
0.475
0.475
0.46
0.475
0.48
0.495
0.495
0.495
0.48
0.45
0.465
0.485
0.5
0.51
0.5
0.495
0.475
0.455
0.45
0.45
0.45
0.475
0.495
0.5
0.485
0.475
0.475
0.495
0.515
0.515
0.525
0.52
0.52
0.53
0.56
0.57
0.585
0.58
0.565
0.57
0.555
0.54
0.54
0.535
0.53
0.515
0.5
0.495
0.48
0.48
0.455
0.44
0.475
0.49
0.495
0.485
0.465
0.48
0.49
0.495
0.49
0.475
0.465
0.475
0.555
0.79
1.215
1.735
2.23
2.53
2.495
2.17
1.69
1.21
0.825
0.625
0.56
0.57
0.57
0.545
0.53
0.525
0.5
0.495
0.51
0.515
0.525
0.52
0.51
0.495
0.475
0.465
0.455
0.455
0.48
0.49
0.5
0.5
0.485
0.5
0.51
0.52
0.5
0.495
0.51
0.525
0.535
0.54
0.54
0.54
0.545
0.57
0.58
0.58
0.59
0.605
0.61
0.625
0.64
0.665
0.68
0.705
0.725
0.73
0.735
0.76
0.77
0.79
0.795
0.825
0.83
0.83
0.805
0.79
0.775
0.775
0.765
0.76
0.73
0.71
0.7
0.665
0.645
0.62
0.62
0.615
0.58
0.56
0.555
0.535
0.53
0.525
0.525
0.515
0.515
0.515
0.515
0.515
0.515
0.51
0.515
0.515
0.505
0.5
0.495
0.5
0.495
0.5
0.5
0.5
0.495
0.495
0.495
0.495
0.5
0.505
0.49
0.485
0.485
0.495
0.51
0.505
0.495
0.5
0.495
0.46
0.445
0.43
0.45
0.475
0.48
0.475
0.48
0.485
0.485
0.495
0.49
0.495
0.495
0.495
0.495
0.48
0.475
0.475
0.49
0.495
0.485
0.475
0.475
0.465
0.465
0.475
0.48
0.485
0.465
0.485
0.48
0.48
0.475
0.475
0.45
0.45
0.455
0.46
0.465
0.465
0.475
0.48
0.465
0.45
0.465
0.475
0.475
0.475
0.46
0.48
0.475
0.465
0.475
0.48
0.49
0.495
0.495
0.495
0.49
0.485
0.475
0.46
0.455
0.455
0.445
0.435
0.435
0.44
0.45
0.455
0.465
0.475
0.475
0.475
0.475
0.48
0.475
0.48
0.49
0.485
0.48
0.475
0.475
0.465
0.475
0.455
0.485
0.5
0.525
0.535
0.535
0.555
0.545
0.56
0.56
0.56
0.57
0.575
0.565
0.565
0.56
0.565
0.54
0.535
0.525
0.52
0.5
0.495
0.485
0.475
0.46
0.465
0.46
0.475
0.475
0.49
0.5
0.495
0.495
0.485
0.485
0.475
0.46
0.465
0.52
0.705
1.075
1.585
2.055
2.4
2.45
2.205
1.755
1.275
0.87
0.645
0.57
0.56
0.56
0.555
0.535
0.515
0.51
0.5
0.49
0.485
0.485
0.485
0.49
0.485
0.49
0.495
0.5
0.495
0.5
0.5
0.5
0.495
0.49
0.475
0.495
0.505
0.51
0.515
0.515
0.52
0.52
0.525
0.52
0.54
0.56
0.56
0.565
0.57
0.595
0.585
0.6
0.62
0.625
0.665
0.66
0.685
0.71
0.735
0.755
0.75
0.745
0.745
0.76
0.79
0.805
0.815
0.815
0.815
0.795
0.79
0.77
0.75
0.735
0.71
0.685
0.665
0.645
0.615
0.595
0.585
0.56
0.56
0.545
0.56
0.535
0.54
0.535
0.54
0.535
0.53
0.5
0.51
0.505
0.51
0.5
0.485
0.5
0.49
0.49
0.495
0.485
0.485
0.495
0.495
0.495
0.495
0.49
0.495
0.485
0.48
0.485
0.485
0.485
0.49
0.485
0.475
0.475
0.49
0.49
0.495
0.49
0.485
0.485
0.49
0.485
0.495
0.49
0.495
0.49
0.49
0.495
0.495
0.485
0.495
0.495
0.495
0.485
0.465
0.48
0.475
0.475
0.46
0.455
0.455
0.465
0.475
0.465
0.46
0.455
0.465
0.465
0.455
0.465
0.465
0.475
0.475
0.455
0.455
0.445
0.44
0.45
0.465
0.485
0.485
0.46
0.46
0.45
0.455
0.475
0.49
0.485
0.48
0.465
0.455
0.45
0.45
0.45
0.455
0.455
0.445
0.455
0.455
0.465
0.475
0.46
0.49
0.495
0.495
0.495
0.48
0.455
0.45
0.44
0.44
0.44
0.45
0.455
0.465
0.475
0.475
0.46
0.46
0.465
0.465
0.465
0.455
0.46
0.475
0.475
0.48
0.475
0.495
0.5
0.51
0.525
0.535
0.53
0.53
0.535
0.535
0.54
0.54
0.58
0.58
0.575
0.58
0.6
0.56
0.535
0.52
0.515
0.485
0.475
0.455
0.445
0.445
0.45
0.45
0.45
0.44
0.425
0.44
0.44
0.44
0.455
0.48
0.495
0.5
0.5
0.54
0.7
1.035
1.515
2.02
2.36
2.395
2.085
1.64
1.16
0.825
0.645
0.56
0.535
0.525
0.515
0.495
0.485
0.475
0.455
0.48
0.48
0.49
0.485
0.485
0.48
0.475
0.475
0.475
0.475
0.455
0.455
0.46
0.475
0.49
0.495
0.495
0.5
0.495
0.51
0.515
0.52
0.53
0.535
0.535
0.535
0.535
0.56
0.545
0.555
0.545
0.56
0.57
0.58
0.585
0.605
0.62
0.645
0.665
0.68
0.71
0.75
0.745
0.765
0.77
0.775
0.785
0.765
0.765
0.765
0.775
0.78
0.765
0.745
0.71
0.67
0.645
0.615
0.6
0.585
0.56
0.535
0.52
0.515
0.515
0.525
0.525
0.515
0.495
0.5
0.5
0.5
0.51
0.5
0.495
0.49
0.465
0.445
0.45
0.48
0.495
0.485
0.455
0.425
0.45
0.44
0.45
0.455
0.43
0.445
0.435
0.435
0.44
0.44
0.45
0.445
0.45
0.455
0.455
0.455
0.46
0.455
0.475
0.475
0.465
0.475
0.455
0.46
0.49
0.485
0.455
0.435
0.43
0.435
0.435
0.425
0.425
0.425
0.43
0.435
0.44
0.445
0.45
0.45
0.445
0.45
0.45
0.435
0.425
0.41
0.39
0.405
0.41
0.415
0.43
0.425
0.43
0.43
0.42
0.415
0.425
0.42
0.43
0.425
0.415
0.415
0.42
0.435
0.445
0.45
0.45
0.43
0.415
0.415
0.41
0.425
0.43
0.43
0.43
0.43
0.44
0.445
0.455
0.465
0.455
0.44
0.415
0.405
0.4
0.415
0.43
0.425
0.415
0.44
0.45
0.435
0.43
0.41
0.45
0.45
0.475
0.485
0.49
0.49
0.5
0.535
0.54
0.555
0.57
0.56
0.545
0.53
0.535
0.525
0.525
0.52
0.515
0.495
0.475
0.45
0.455
0.455
0.455
0.455
0.485
0.49
0.475
0.465
0.465
0.49
0.495
0.455
0.44
0.44
0.45
0.495
0.56
0.745
1.11
1.605
2.055
2.355
2.33
2.025
1.575
1.13
0.785
0.605
0.56
0.57
0.595
0.585
0.535
0.51
0.5
0.5
0.51
0.52
0.515
0.52
0.53
0.54
0.56
0.56
0.57
0.565
0.56
0.575
0.565
0.555
0.535
0.54
0.57
0.585
0.58
0.585
0.58
0.585
0.6
0.605
0.61
0.645
0.63
0.64
0.645
0.66
0.685
0.695
0.71
0.705
0.71
0.71
0.74
0.765
0.79
0.81
0.805
0.79
0.82
0.84
0.86
0.865
0.875
0.875
0.89
0.875
0.855
0.855
0.845
0.81
0.785
0.75
0.735
0.71
0.69
0.67
0.655
0.64
0.625
0.62
0.61
0.595
0.585
0.57
0.58
0.575
0.575
0.57
0.555
0.58
0.58
0.58
0.575
0.57
0.57
0.56
0.565
0.545
0.54
0.555
0.555
0.545
0.545
0.54
0.545
0.555
0.56
0.555
0.555
0.555
0.545
0.555
0.545
0.555
0.545
0.535
0.56
0.57
0.56
0.56
0.555
0.54
0.535
0.53
0.54
0.555
0.57
0.565
0.555
0.56
0.54
0.565
0.555
0.56
0.56
0.54
0.545
0.54
0.54
0.535
0.525
0.53
0.525
0.525
0.53
0.535
0.54
0.535
0.535
0.54
0.535
0.53
0.535
0.525
0.525
0.53
0.525
0.525
0.525
0.52
0.525
0.515
0.515
0.51
0.515
0.515
0.515
0.515
0.515
0.515
0.525
0.515
0.5
0.515
0.515
0.515
0.515
0.5
0.52
0.525
0.525
0.525
0.515
0.515
0.51
0.515
0.51
0.495
0.495
0.495
0.5
0.5
0.505
0.515
0.52
0.53
0.53
0.54
0.56
0.57
0.575
0.57
0.58
0.57
0.58
0.595
0.61
0.6
0.59
0.59
0.585
0.575
0.555
0.545
0.515
0.53
0.515
0.515
0.515
0.485
0.495
0.495
0.495
0.5
0.495
0.5
0.5
0.5
0.505
0.5
0.5
0.51
0.51
0.525
0.61
0.835
1.24
1.745
2.225
2.53
2.515
2.215
1.755
1.275
0.875
0.66
0.595
0.6
0.6
0.58
0.56
0.54
0.53
0.525
0.525
0.515
0.515
0.515
0.52
0.52
0.525
0.5
0.525
0.525
0.525
0.525
0.52
0.525
0.53
0.535
0.53
0.535
0.545
0.555
0.56
0.56
0.57
0.58
0.58
0.58
0.58
0.595
0.6
0.615
0.615
0.625
0.64
0.655
0.67
0.68
0.695
0.715
0.74
0.755
0.775
0.79
0.81
0.82
0.825
0.835
0.845
0.85
0.855
0.85
0.825
0.82
0.795
0.77
0.76
0.725
0.69
0.67
0.655
0.62
0.6
0.595
0.585
0.575
0.57
0.555
0.555
0.54
0.54
0.54
0.54
0.54
0.535
0.53
0.525
0.52
0.515
0.51
0.51
0.515
0.515
0.5
0.495
0.495
0.505
0.515
0.51
0.5
0.5
0.505
0.51
0.495
0.51
0.5
0.51
0.5
0.485
0.5
0.5
0.51
0.5
0.49
0.495
0.495
0.505
0.515
0.51
0.51
0.515
0.51
0.51
0.515
0.505
0.5
0.5
0.5
0.51
0.495
0.5
0.495
0.495
0.5
0.49
0.465
0.49
0.495
0.5
0.495
0.495
0.5
0.5
0.5
0.495
0.495
0.495
0.485
0.495
0.495
0.475
0.495
0.5
0.495
0.485
0.46
0.485
0.49
0.495
0.485
0.495
0.49
0.495
0.49
0.48
0.48
0.485
0.485
0.485
0.48
0.495
0.495
0.485
0.485
0.485
0.485
0.49
0.485
0.495
0.495
0.495
0.49
0.485
0.485
0.485
0.49
0.495
0.49
0.485
0.49
0.495
0.49
0.475
0.49
0.495
0.495
0.495
0.465
0.495
0.495
0.515
0.525
0.53
0.535
0.535
0.54
0.56
0.575
0.59
0.6
0.59
0.575
0.57
0.57
0.56
0.545
0.54
0.535
0.515
0.5
0.495
0.49
0.49
0.475
0.475
0.475
0.48
0.485
0.475
0.475
0.48
0.48
0.485
0.48
0.48
0.485
0.535
0.685
1.01
1.49
1.975
2.345
2.455
2.245
1.86
1.395
0.995
0.715
0.62
0.575
0.575
0.57
0.535
0.525
0.515
0.5
0.495
0.495
0.495
0.495
0.495
0.495
0.495
0.495
0.495
0.495
0.49
0.495
0.495
0.5
0.51
0.515
0.515
0.515
0.53
0.525
0.525
0.525
0.525
0.54
0.535
0.52
0.555
0.565
0.57
0.585
0.605
0.595
0.605
0.615
0.62
0.65
0.655
0.675
0.685
0.7
0.73
0.74
0.76
0.765
0.775
0.78
0.805
0.81
0.815
0.82
0.795
0.79
0.775
0.755
0.735
0.7
0.685
0.66
0.64
0.62
0.6
0.585
0.58
0.57
0.555
0.54
0.53
0.51
0.515
0.515
0.51
0.51
0.495
0.5
0.495
0.495
0.495
0.495
0.5
0.5
0.505
0.495
0.49
0.485
0.485
0.475
0.465
0.48
0.48
0.475
0.48
0.485
0.485
0.48
0.465
0.475
0.475
0.465
0.45
0.44
0.475
0.475
0.49
0.475
0.475
0.475
0.475
0.475
0.465
0.48
0.475
0.48
0.475
0.46
0.45
0.475
0.465
0.475
0.475
0.465
0.48
0.475
0.465
0.45
0.44
0.455
0.465
0.455
0.475
0.455
0.455
0.45
0.455
0.45
0.45
0.45
0.45
0.445
0.455
0.455
0.45
0.445
0.445
0.44
0.45
0.435
0.43
0.425
0.43
0.45
0.455
0.465
0.45
0.45
0.45
0.445
0.43
0.445
0.445
0.45
0.45
0.45
0.465
0.465
0.455
0.455
0.455
0.455
0.455
0.455
0.455
0.45
0.455
0.455
0.45
0.45
0.455
0.45
0.455
0.485
0.495
0.49
0.475
0.455
0.475
0.49
0.51
0.51
0.515
0.525
0.54
0.545
0.56
0.555
0.54
0.54
0.535
0.525
0.5
0.51
0.505
0.495
0.485
0.45
0.455
0.45
0.46
0.45
0.44
0.45
0.45
0.45
0.45
0.44
0.455
0.465
0.475
0.465
0.475
0.46
0.5
0.605
0.875
1.285
1.78
2.21
2.42
2.295
1.925
1.46
1.005
0.69
0.555
0.535
0.54
0.54
0.535
0.515
0.495
0.475
0.475
0.475
0.475
0.48
0.465
0.445
0.465
0.465
0.475
0.475
0.45
0.475
0.48
0.485
0.495
0.485
0.495
0.49
0.5
0.5
0.5
0.5
0.515
0.515
0.515
0.515
0.515
0.53
0.545
0.56
0.56
0.575
0.585
0.6
0.61
0.61
0.62
0.655
0.67
0.675
0.685
0.695
0.715
0.75
0.77
0.785
0.785
0.815
0.815
0.815
0.805
0.79
0.79
0.76
0.74
0.715
0.685
0.675
0.65
0.625
0.595
0.58
0.56
0.545
0.535
0.52
0.505
0.5
0.495
0.49
0.49
0.48
0.475
0.485
0.485
0.485
0.485
0.465
0.475
0.455
0.475
0.465
0.46
0.465
0.475
0.475
0.475
0.48
0.475
0.45
0.455
0.44
0.44
0.435
0.43
0.45
0.45
0.45
0.45
0.435
0.435
0.44
0.44
0.445
0.45
0.45
0.45
0.455
0.455
0.445
0.44
0.45
0.45
0.44
0.44
0.44
0.435
0.445
0.45
0.45
0.44
0.435
0.44
0.44
0.44
0.43
0.43
0.425
0.43
0.435
0.43
0.435
0.43
0.425
0.43
0.42
0.41
0.425
0.43
0.43
0.425
0.41
0.42
0.425
0.415
0.415
0.425
0.43
0.43
0.43
0.43
0.425
0.43
0.43
0.415
0.415
0.43
0.42
0.43
0.43
0.435
0.425
0.425
0.43
0.43
0.43
0.43
0.43
0.43
0.44
0.435
0.44
0.43
0.43
0.425
0.43
0.43
0.435
0.41
0.43
0.435
0.44
0.43
0.415
0.43
0.43
0.44
0.445
0.445
0.45
0.465
0.475
0.485
0.495
0.495
0.5
0.515
0.52
0.53
0.535
0.54
0.535
0.52
0.525
0.515
0.51
0.505
0.495
0.475
0.455
0.43
0.44
0.43
0.435
0.43
0.43
0.43
0.435
0.445
0.44
0.44
0.44
0.45
0.445
0.455
0.44
0.45
0.475
0.605
0.87
1.32
1.82
2.26
2.475
2.36
2.015
1.545
1.095
0.76
0.595
0.535
0.535
0.53
0.51
0.495
0.485
0.465
0.455
0.45
0.445
0.45
0.45
0.45
0.455
0.455
0.46
0.455
0.455
0.455
0.465
0.475
0.48
0.49
0.485
0.485
0.485
0.495
0.48
0.5
0.505
0.51
0.515
0.5
0.52
0.53
0.535
0.54
0.54
0.56
0.57
0.58
0.595
0.61
0.625
0.645
0.655
0.685
0.695
0.71
0.735
0.75
0.77
0.78
0.795
0.815
0.815
0.815
0.81
0.805
0.78
0.77
0.74
0.705
0.68
0.655
0.64
0.61
0.585
0.58
0.535
0.555
0.535
0.535
0.525
0.5
0.505
0.51
0.505
0.5
0.495
0.5
0.5
0.5
0.495
0.5
0.5
0.5
0.5
0.5
0.5
0.5
0.495
0.485
0.485
0.485
0.475
0.475
0.475
0.475
0.48
0.48
0.455
0.48
0.475
0.485
0.465
0.475
0.455
0.475
0.465
0.465
0.48
0.495
0.485
0.485
0.485
0.46
0.48
0.475
0.485
0.475
0.465
0.475
0.485
0.475
0.465
0.465
0.48
0.485
0.495
0.495
0.485
0.475
0.465
0.48
0.465
0.475
0.465
0.455
0.465
0.455
0.455
0.455
0.46
0.475
0.46
0.465
0.465
0.455
0.455
0.455
0.455
0.45
0.45
0.455
0.465
0.465
0.45
0.435
0.45
0.45
0.445
0.445
0.43
0.45
0.445
0.455
0.455
0.455
0.455
0.455
0.455
0.455
0.45
0.46
0.455
0.45
0.45
0.46
0.46
0.475
0.475
0.475
0.465
0.475
0.465
0.475
0.455
0.475
0.465
0.475
0.475
0.475
0.475
0.46
0.475
0.46
0.465
0.48
0.485
0.475
0.48
0.48
0.485
0.49
0.475
0.5
0.51
0.525
0.53
0.525
0.53
0.525
0.54
0.58
0.595
0.585
0.58
0.555
0.555
0.54
0.53
0.525
0.515
0.5
0.49
0.475
0.475
0.48
0.475
0.465
0.465
0.45
0.455
0.455
0.46
0.475
0.48
0.475
0.475
0.495
0.49
0.485
0.475
0.525
0.68
0.995
1.445
1.905
2.285
2.465
2.335
1.965
1.5
1.065
0.745
0.605
0.56
0.57
0.565
0.54
0.515
0.49
0.49
0.49
0.495
0.49
0.485
0.485
0.485
0.485
0.485
0.495
0.49
0.5
0.495
0.495
0.5
0.505
0.515
0.505
0.505
0.52
0.51
0.515
0.52
0.525
0.535
0.535
0.515
0.535
0.54
0.56
0.57
0.545
0.575
0.585
0.595
0.61
0.62
0.63
0.655
0.655
0.68
0.705
0.725
0.74
0.76
0.77
0.77
0.79
0.805
0.815
0.815
0.825
0.815
0.805
0.79
0.775
0.745
0.73
0.695
0.68
0.655
0.64
0.615
0.595
0.58
0.58
0.56
0.555
0.535
0.525
0.51
0.515
0.525
0.5
0.51
0.505
0.515
0.505
0.5
0.515
0.515
0.505
0.5
0.495
0.495
0.485
0.495
0.49
0.495
0.5
0.5
0.495
0.49
0.49
0.49
0.49
0.49
0.48
0.485
0.48
0.48
0.475
0.465
0.465
0.465
0.475
0.485
0.49
0.485
0.485
0.495
0.49
0.485
0.485
0.49
0.465
0.485
0.485
0.485
0.49
0.475
0.495
0.485
0.48
0.475
0.475
0.485
0.49
0.49
0.485
0.475
0.48
0.475
0.46
0.455
0.465
0.46
0.475
0.475
0.475
0.475
0.48
0.48
0.475
0.455
0.475
0.455
0.475
0.455
0.46
0.46
0.465
0.465
0.475
0.455
0.465
0.465
0.44
0.46
0.455
0.46
0.475
0.45
0.475
0.455
0.46
0.475
0.465
0.475
0.475
0.475
0.475
0.46
0.46
0.465
0.475
0.465
0.485
0.475
0.465
0.465
0.46
0.475
0.475
0.48
0.475
0.475
0.48
0.475
0.45
0.48
0.465
0.48
0.475
0.465
0.455
0.455
0.455
0.46
0.465
0.475
0.485
0.495
0.5
0.495
0.515
0.525
0.525
0.51
0.515
0.535
0.57
0.575
0.58
0.565
0.555
0.54
0.54
0.525
0.525
0.52
0.515
0.495
0.485
0.475
0.46
0.455
0.455
0.45
0.45
0.455
0.465
0.465
0.465
0.465
0.465
0.475
0.48
0.475
0.46
0.475
0.525
0.69
1.0
1.435
1.915
2.29
2.41
2.235
1.855
1.41
1.015
0.715
0.59
0.54
0.535
0.525
0.515
0.5
0.485
0.475
0.465
0.475
0.465
0.475
0.475
0.46
0.475
0.46
0.475
0.455
0.455
0.465
0.475
0.485
0.49
0.485
0.485
0.485
0.495
0.495
0.5
0.5
0.51
0.51
0.505
0.51
0.505
0.495
0.525
0.54
0.56
0.565
0.555
0.58
0.59
0.6
0.625
0.64
0.66
0.67
0.69
0.71
0.725
0.725
0.735
0.745
0.765
0.77
0.79
0.795
0.785
0.78
0.765
0.745
0.725
0.705
0.685
0.655
0.63
0.61
0.58
0.565
0.545
0.535
0.525
0.52
0.515
0.5
0.5
0.5
0.495
0.485
0.485
0.48
0.455
0.475
0.475
0.475
0.48
0.455
0.475
0.475
0.48
0.475
0.46
0.465
0.46
0.46
0.46
0.455
0.465
0.455
0.455
0.455
0.455
0.445
0.44
0.45
0.445
0.455
0.455
0.45
0.45
0.445
0.455
0.455
0.455
0.455
0.455
0.455
0.45
0.45
0.455
0.455
0.46
0.455
0.43
0.45
0.45
0.45
0.45
0.43
0.45
0.45
0.45
0.44
0.435
0.45
0.44
0.43
0.43
0.43
0.435
0.435
0.435
0.43
0.43
0.425
0.42
0.425
0.43
0.43
0.435
0.435
0.44
0.44
0.43
0.43
0.42
0.43
0.425
0.435
0.43
0.44
0.44
0.43
0.435
0.43
0.43
0.425
0.415
0.41
0.415
0.41
0.43
0.43
0.435
0.435
0.43
0.43
0.425
0.425
0.43
0.425
0.425
0.425
0.43
0.43
0.435
0.43
0.43
0.43
0.435
0.43
0.425
0.43
0.435
0.44
0.44
0.43
0.43
0.435
0.43
0.435
0.43
0.43
0.44
0.44
0.445
0.43
0.43
0.43
0.44
0.455
0.475
0.46
0.49
0.495
0.5
0.49
0.485
0.51
0.535
0.56
0.54
0.53
0.515
0.515
0.515
0.5
0.495
0.48
0.465
0.45
0.44
0.435
0.43
0.43
0.43
0.425
0.425
0.425
0.43
0.43
0.425
0.43
0.44
0.45
0.45
0.44
0.45
0.48
0.61
0.9
1.33
1.815
2.2
2.37
2.195
1.805
1.33
0.91
0.655
0.535
0.525
0.525
0.52
0.5
0.48
0.455
0.44
0.435
0.43
0.435
0.45
0.455
0.45
0.445
0.45
0.45
0.45
0.445
0.445
0.435
0.44
0.435
0.45
0.475
0.475
0.455
0.475
0.485
0.495
0.495
0.495
0.49
0.495
0.495
0.5
0.515
0.525
0.54
0.565
0.56
0.54
0.575
0.595
0.61
0.615
0.645
0.65
0.655
0.675
0.685
0.71
0.725
0.745
0.75
0.76
0.77
0.77
0.765
0.76
0.76
0.735
0.715
0.695
0.675
0.655
0.625
0.62
0.585
0.565
0.555
0.545
0.525
0.515
0.51
0.495
0.49
0.485
0.475
0.465
0.475
0.475
0.465
0.45
0.485
0.48
0.475
0.455
0.44
0.455
0.455
0.455
0.45
0.445
0.445
0.45
0.435
0.445
0.44
0.44
0.43
0.44
0.45
0.45
0.445
0.44
0.45
0.44
0.43
0.43
0.435
0.43
0.435
0.44
0.44
0.45
0.455
0.45
0.445
0.45
0.45
0.445
0.445
0.455
0.445
0.425
0.445
0.455
0.44
0.44
0.425
0.435
0.44
0.45
0.44
0.42
0.425
0.43
0.43
0.425
0.43
0.43
0.43
0.435
0.425
0.425
0.415
0.415
0.42
0.415
0.425
0.43
0.43
0.435
0.425
0.415
0.405
0.4
0.41
0.42
0.43
0.44
0.435
0.43
0.425
0.425
0.425
0.43
0.43
0.43
0.425
0.425
0.4
0.425
0.415
0.43
0.435
0.42
0.44
0.44
0.43
0.43
0.43
0.43
0.44
0.425
0.42
0.41
0.41
0.415
0.425
0.44
0.445
0.445
0.43
0.43
0.435
0.44
0.435
0.44
0.45
0.45
0.465
0.475
0.49
0.5
0.5
0.5
0.5
0.51
0.525
0.535
0.535
0.53
0.505
0.515
0.505
0.5
0.495
0.475
0.48
0.465
0.45
0.435
0.425
0.425
0.42
0.43
0.43
0.415
0.42
0.43
0.435
0.43
0.43
0.435
0.445
0.445
0.455
0.48
0.555
0.78
1.18
1.665
2.105
2.36
2.275
1.985
1.525
1.08
0.745
0.58
0.535
0.525
0.525
0.515
0.485
0.465
0.455
0.45
0.44
0.43
0.44
0.445
0.445
0.445
0.45
0.455
0.45
0.45
0.455
0.45
0.445
0.455
0.455
0.475
0.48
0.48
0.475
0.475
0.475
0.49
0.495
0.5
0.49
0.495
0.515
0.515
0.525
0.53
0.54
0.545
0.56
0.58
0.585
0.605
0.62
0.63
0.65
0.655
0.67
0.69
0.7
0.735
0.735
0.75
0.76
0.775
0.795
0.775
0.77
0.75
0.735
0.715
0.69
0.675
0.655
0.615
0.6
0.575
0.565
0.56
0.535
0.525
0.51
0.5
0.495
0.485
0.48
0.475
0.475
0.46
0.455
0.465
0.46
0.475
0.475
0.46
0.46
0.455
0.445
0.45
0.445
0.45
0.45
0.43
0.455
0.45
0.45
0.445
0.43
0.45
0.435
0.45
0.445
0.45
0.45
0.45
0.44
0.435
0.435
0.435
0.435
0.44
0.45
0.45
0.455
0.455
0.445
0.455
0.455
0.45
0.45
0.455
0.45
0.455
0.445
0.44
0.455
0.45
0.45
0.445
0.435
0.43
0.44
0.445
0.435
0.44
0.435
0.45
0.445
0.445
0.415
0.435
0.445
0.445
0.445
0.43
0.43
0.43
0.43
0.44
0.43
0.44
0.44
0.45
0.435
0.44
0.44
0.435
0.435
0.43
0.44
0.44
0.445
0.45
0.45
0.45
0.445
0.44
0.44
0.44
0.45
0.44
0.445
0.445
0.45
0.45
0.445
0.455
0.45
0.455
0.45
0.44
0.425
0.44
0.45
0.45
0.45
0.435
0.455
0.455
0.455
0.45
0.44
0.445
0.45
0.45
0.455
0.455
0.455
0.45
0.45
0.45
0.46
0.475
0.46
0.48
0.485
0.495
0.495
0.505
0.51
0.52
0.52
0.515
0.535
0.56
0.58
0.58
0.56
0.56
0.545
0.535
0.535
0.525
0.495
0.5
0.495
0.48
0.465
0.44
0.455
0.45
0.45
0.455
0.45
0.455
0.455
0.475
0.465
0.475
0.48
0.49
0.48
0.475
0.48
0.56
0.77
1.155
1.605
2.055
2.345
2.35
2.06
1.615
1.145
0.79
0.61
0.56
0.56
0.56
0.535
0.515
0.495
0.485
0.48
0.49
0.495
0.485
0.48
0.475
0.475
0.455
0.48
0.485
0.485
0.495
0.475
0.495
0.5
0.495
0.495
0.485
0.495
0.495
0.495
0.51
0.515
0.535
0.53
0.54
0.535
0.545
0.545
0.555
0.56
0.58
0.595
0.61
0.61
0.62
0.64
0.655
0.675
0.685
0.7
0.715
0.725
0.74
0.745
0.77
0.78
0.79
0.805
0.82
0.795
0.79
0.78
0.775
0.775
0.75
0.735
0.7
0.67
0.655
0.625
0.615
0.59
0.585
0.565
0.555
0.535
0.535
0.52
0.51
0.51
0.505
0.51
0.515
0.51
0.515
0.51
0.515
0.51
0.515
0.5
0.51
0.5
0.495
0.495
0.495
0.495
0.495
0.495
0.49
0.495
0.485
0.5
0.5
0.495
0.495
0.475
0.485
0.495
0.485
0.49
0.49
0.495
0.49
0.485
0.495
0.485
0.495
0.495
0.5
0.5
0.5
0.495
0.495
0.49
0.5
0.5
0.5
0.495
0.495
0.49
0.495
0.495
0.485
0.495
0.495
0.495
0.495
0.495
0.485
0.49
0.485
0.475
0.475
0.465
0.48
0.485
0.495
0.455
0.48
0.475
0.475
0.475
0.45
0.465
0.465
0.475
0.485
0.465
0.475
0.475
0.48
0.48
0.475
0.485
0.48
0.48
0.475
0.475
0.46
0.455
0.475
0.475
0.48
0.465
0.465
0.48
0.475
0.455
0.455
0.465
0.475
0.48
0.475
0.465
0.475
0.465
0.465
0.465
0.475
0.45
0.48
0.475
0.475
0.465
0.455
0.475
0.475
0.465
0.465
0.465
0.48
0.475
0.48
0.465
0.455
0.46
0.465
0.465
0.46
0.465
0.48
0.475
0.475
0.48
0.49
0.5
0.515
0.52
0.525
0.52
0.525
0.51
0.54
0.57
0.58
0.585
0.56
0.555
0.54
0.535
0.53
0.515
0.515
0.495
0.49
0.465
0.45
0.455
0.455
0.445
0.45
0.44
0.455
0.455
0.475
0.475
0.46
0.465
0.455
0.46
0.475
0.46
0.485
0.56
0.775
1.125
1.58
2.01
2.31
2.33
2.08
1.665
1.21
0.84
0.64
0.565
0.545
0.53
0.515
0.5
0.495
0.485
0.475
0.46
0.465
0.465
0.475
0.455
0.445
0.46
0.465
0.465
0.455
0.435
0.455
0.455
0.46
0.465
0.475
0.475
0.48
0.475
0.48
0.46
0.485
0.49
0.495
0.495
0.5
0.51
0.515
0.515
0.525
0.535
0.56
0.56
0.575
0.58
0.585
0.605
0.625
0.645
0.655
0.66
0.68
0.685
0.695
0.71
0.73
0.735
0.77
0.745
0.76
0.75
0.75
0.75
0.715
0.705
0.67
0.655
0.64
0.61
0.585
0.56
0.545
0.525
0.51
0.495
0.495
0.485
0.485
0.475
0.46
0.475
0.46
0.45
0.455
0.45
0.455
0.455
0.455
0.45
0.43
0.45
0.445
0.435
0.435
0.435
0.44
0.425
0.42
0.425
0.43
0.43
0.44
0.45
0.44
0.415
0.43
0.44
0.44
0.435
0.415
0.425
0.42
0.42
0.43
0.43
0.425
0.425
0.415
0.41
0.415
0.425
0.435
0.435
0.43
0.43
0.415
0.415
0.415
0.415
0.43
0.425
0.42
0.425
0.42
0.43
0.415
0.415
0.41
0.41
0.415
0.415
0.42
0.41
0.4
0.405
0.41
0.39
0.415
0.415
0.41
0.395
0.37
0.375
0.38
0.39
0.39
0.39
0.395
0.405
0.405
0.4
0.4
0.4
0.41
0.41
0.41
0.41
0.4
0.39
0.41
0.41
0.41
0.395
0.39
0.39
0.39
0.39
0.39
0.4
0.4
0.4
0.4
0.4
0.41
0.41
0.41
0.41
0.4
0.395
0.41
0.405
0.41
0.41
0.375
0.395
0.395
0.395
0.395
0.41
0.41
0.405
0.415
0.41
0.41
0.41
0.41
0.425
0.43
0.44
0.45
0.45
0.45
0.45
0.455
0.465
0.495
0.51
0.515
0.51
0.495
0.48
0.475
0.46
0.46
0.445
0.45
0.43
0.415
0.415
0.4
0.4
0.395
0.39
0.4
0.39
0.38
0.395
0.395
0.41
0.405
0.395
0.41
0.405
0.415
0.41
0.42
0.515
0.76
1.165
1.645
2.105
2.35
2.33
2.045
1.61
1.14
0.75
0.535
0.475
0.48
0.48
0.465
0.45
0.43
0.415
0.415
0.415
0.415
0.415
0.41
0.405
0.41
0.415
0.415
0.415
0.43
0.43
0.395
0.41
0.41
0.425
0.415
0.41
0.43
0.43
0.435
0.43
0.43
0.435
0.45
0.465
0.465
0.465
0.475
0.49
0.49
0.495
0.5
0.52
0.535
0.545
0.56
0.57
0.595
0.605
0.62
0.64
0.63
0.665
0.685
0.695
0.705
0.71
0.73
0.735
0.75
0.745
0.735
0.73
0.715
0.675
0.655
0.625
0.61
0.565
0.565
0.535
0.52
0.505
0.485
0.48
0.46
0.455
0.44
0.425
0.425
0.425
0.42
0.42
0.43
0.43
0.44
0.435
0.425
0.42
0.41
0.405
0.41
0.41
0.415
0.425
0.42
0.415
0.415
0.425
0.41
0.41
0.41
0.405
0.415
0.4
0.4
0.4
0.4
0.41
0.41
0.39
0.41
0.4
0.405
0.41
0.39
0.41
0.415
0.425
0.43
0.415
0.415
0.415
0.425
0.415
0.415
0.425
0.425
0.43
0.415
0.415
0.41
0.415
0.415
0.415
0.42
0.41
0.41
0.41
0.415
0.425
0.42
0.425
0.42
0.415
0.41
0.405
0.41
0.41
0.41
0.41
0.4
0.39
0.41
0.41
0.41
0.415
0.39
0.4
0.4
0.395
0.395
0.4
0.41
0.415
0.43
0.42
0.41
0.41
0.41
0.41
0.415
0.41
0.41
0.41
0.41
0.41
0.415
0.415
0.425
0.43
0.43
0.43
0.415
0.395
0.41
0.415
0.415
0.415
0.42
0.42
0.42
0.42
0.43
0.435
0.43
0.43
0.435
0.435
0.425
0.425
0.43
0.425
0.43
0.415
0.43
0.425
0.43
0.44
0.43
0.425
0.44
0.45
0.46
0.465
0.48
0.485
0.49
0.49
0.5
0.515
0.535
0.56
0.555
0.54
0.525
0.515
0.51
0.5
0.5
0.495
0.48
0.465
0.445
0.45
0.43
0.435
0.44
0.43
0.44
0.43
0.415
0.435
0.44
0.45
0.435
0.43
0.455
0.45
0.445
0.455
0.56
0.815
1.21
1.7
2.16
2.475
2.46
2.17
1.7
1.215
0.825
0.645
0.57
0.555
0.53
0.515
0.5
0.485
0.465
0.45
0.45
0.445
0.45
0.445
0.45
0.45
0.45
0.465
0.475
0.46
0.48
0.475
0.46
0.475
0.475
0.455
0.455
0.44
0.475
0.485
0.495
0.495
0.495
0.495
0.5
0.51
0.515
0.515
0.525
0.525
0.54
0.54
0.56
0.565
0.585
0.605
0.625
0.645
0.655
0.67
0.685
0.7
0.705
0.725
0.75
0.765
0.775
0.78
0.79
0.79
0.79
0.795
0.78
0.76
0.745
0.715
0.695
0.665
0.645
0.625
0.585
0.575
0.56
0.555
0.525
0.525
0.525
0.515
0.5
0.49
0.485
0.495
0.495
0.495
0.495
0.495
0.49
0.485
0.485
0.48
0.485
0.485
0.495
0.49
0.49
0.48
0.475
0.485
0.475
0.475
0.475
0.475
0.465
0.465
0.475
0.465
0.475
0.485
0.475
0.465
0.465
0.445
0.465
0.465
0.465
0.465
0.455
0.485
0.48
0.465
0.46
0.475
0.48
0.485
0.485
0.475
0.465
0.475
0.475
0.48
0.465
0.46
0.475
0.475
0.48
0.48
0.48
0.475
0.475
0.475
0.475
0.465
0.46
0.45
0.475
0.46
0.465
0.455
0.455
0.455
0.465
0.465
0.46
0.45
0.45
0.455
0.475
0.465
0.44
0.45
0.455
0.455
0.455
0.45
0.45
0.465
0.475
0.465
0.455
0.465
0.465
0.475
0.465
0.465
0.475
0.465
0.475
0.475
0.46
0.455
0.455
0.455
0.455
0.46
0.455
0.46
0.465
0.475
0.475
0.46
0.465
0.475
0.48
0.485
0.475
0.465
0.475
0.465
0.465
0.475
0.45
0.465
0.475
0.465
0.46
0.45
0.475
0.475
0.485
0.475
0.475
0.475
0.485
0.485
0.49
0.475
0.495
0.49
0.495
0.495
0.505
0.52
0.535
0.54
0.54
0.54
0.535
0.555
0.57
0.585
0.585
0.58
0.58
0.56
0.56
0.545
0.535
0.53
0.525
0.52
0.5
0.49
0.455
0.475
0.46
0.475
0.475
0.45
0.475
0.465
0.48
0.48
0.475
0.485
0.495
0.5
0.495
0.485
0.495
0.61
0.88
1.325
1.83
2.235
2.43
2.295
1.915
1.44
1.005
0.725
0.605
0.575
0.58
0.56
0.525
0.525
0.515
0.5
0.495
0.49
0.485
0.485
0.49
0.49
0.495
0.505
0.51
0.51
0.495
0.485
0.5
0.5
0.51
0.5
0.495
0.515
0.515
0.525
0.525
0.52
0.54
0.54
0.545
0.535
0.54
0.56
0.56
0.565
0.575
0.585
0.6
0.61
0.625
0.63
0.655
0.66
0.67
0.68
0.69
0.7
0.73
0.75
0.765
0.775
0.79
0.81
0.81
0.825
0.83
0.82
0.815
0.81
0.77
0.755
0.73
0.715
0.705
0.67
0.655
0.625
0.61
0.6
0.595
0.58
0.56
0.54
0.54
0.54
0.535
0.53
0.52
0.53
0.525
0.525
0.53
0.52
0.515
0.51
0.51
0.515
0.515
0.515
0.515
0.525
0.515
0.515
0.515
0.51
0.515
0.505
0.51
0.515
0.495
0.475
0.485
0.495
0.5
0.51
0.485
0.5
0.495
0.5
0.5
0.495
0.505
0.5
0.5
0.5
0.495
0.515
0.515
0.505
0.515
0.515
0.51
0.52
0.515
0.515
0.5
0.5
0.5
0.5
0.51
0.51
0.51
0.495
0.51
0.5
0.5
0.5
0.5
0.495
0.495
0.495
0.495
0.495
0.49
0.485
0.49
0.49
0.475
0.495
0.495
0.495
0.485
0.48
0.49
0.49
0.495
0.5
0.495
0.495
0.485
0.49
0.495
0.49
0.49
0.49
0.49
0.485
0.495
0.49
0.485
0.5
0.505
0.5
0.495
0.495
0.495
0.485
0.49
0.485
0.485
0.5
0.5
0.5
0.495
0.49
0.495
0.495
0.495
0.495
0.46
0.485
0.5
0.51
0.5
0.495
0.5
0.495
0.495
0.5
0.495
0.5
0.505
0.51
0.5
0.49
0.49
0.495
0.5
0.505
0.51
0.525
0.535
0.555
0.54
0.54
0.555
0.56
0.57
0.6
0.6
0.6
0.6
0.595
0.58
0.565
0.57
0.56
0.54
0.525
0.525
0.515
0.495
0.495
0.485
0.485
0.485
0.46
0.485
0.485
0.485
0.495
0.49
0.495
0.5
0.495
0.5
0.5
0.52
0.62
0.845
1.235
1.695
2.11
2.355
2.285
1.965
1.54
1.12
0.795
0.615
0.57
0.575
0.56
0.54
0.53
0.51
0.5
0.5
0.51
0.51
0.5
0.505
0.495
0.495
0.495
0.495
0.49
0.495
0.475
0.5
0.5
0.515
0.505
0.485
0.5
0.51
0.525
0.525
0.51
0.51
0.515
0.535
0.54
0.555
0.56
0.56
0.565
0.57
0.57
0.58
0.585
0.595
0.615
0.63
0.655
0.665
0.665
0.685
0.69
0.715
0.735
0.755
0.77
0.78
0.795
0.795
0.81
0.815
0.81
0.815
0.82
0.78
0.76
0.73
0.7
0.7
0.665
0.645
0.61
0.59
0.57
0.555
0.535
0.53
0.53
0.525
0.52
0.515
0.515
0.515
0.5
0.5
0.495
0.5
0.49
0.49
0.485
0.485
0.485
0.485
0.495
0.495
0.475
0.485
0.48
0.48
0.485
0.48
0.465
0.475
0.465
0.475
0.475
0.48
0.465
0.475
0.465
0.435
0.455
0.465
0.475
0.48
0.475
0.485
0.48
0.48
0.475
0.45
0.455
0.465
0.465
0.455
0.455
0.465
0.46
0.46
0.455
0.455
0.455
0.455
0.475
0.455
0.45
0.455
0.45
0.45
0.45
0.445
0.45
0.455
0.45
0.45
0.45
0.45
0.45
0.45
0.45
0.45
0.445
0.43
0.45
0.435
0.435
0.435
0.425
0.45
0.44
0.44
0.435
0.44
0.445
0.44
0.45
0.45
0.45
0.445
0.45
0.44
0.44
0.44
0.435
0.44
0.435
0.44
0.445
0.44
0.44
0.45
0.45
0.45
0.45
0.45
0.44
0.435
0.45
0.455
0.455
0.455
0.445
0.45
0.45
0.42
0.435
0.445
0.45
0.45
0.43
0.44
0.45
0.45
0.45
0.455
0.465
0.46
0.46
0.455
0.465
0.48
0.49
0.495
0.485
0.485
0.495
0.505
0.535
0.545
0.555
0.545
0.535
0.535
0.525
0.525
0.51
0.48
0.49
0.48
0.48
0.46
0.455
0.455
0.45
0.45
0.44
0.45
0.45
0.44
0.445
0.435
0.43
0.45
0.455
0.455
0.45
0.43
0.445
0.515
0.715
1.105
1.585
2.045
2.365
2.4
2.16
1.75
1.285
0.875
0.605
0.515
0.5
0.515
0.51
0.5
0.485
0.455
0.445
0.455
0.45
0.455
0.46
0.455
0.455
0.46
0.455
0.465
0.465
0.475
0.475
0.46
0.455
0.455
0.44
0.46
0.465
0.475
0.49
0.48
0.49
0.5
0.5
0.505
0.51
0.515
0.515
0.53
0.54
0.555
0.555
0.56
0.575
0.59
0.6
0.61
0.625
0.645
0.665
0.68
0.695
0.71
0.725
0.735
0.75
0.77
0.78
0.805
0.805
0.79
0.78
0.775
0.765
0.755
0.735
0.715
0.705
0.675
0.645
0.615
0.6
0.56
0.555
0.535
0.525
0.52
0.51
0.5
0.51
0.495
0.485
0.49
0.49
0.49
0.495
0.475
0.465
0.475
0.465
0.475
0.475
0.475
0.465
0.475
0.475
0.46
0.455
0.455
0.455
0.46
0.455
0.455
0.45
0.45
0.445
0.455
0.455
0.455
0.45
0.455
0.45
0.455
0.455
0.44
0.45
0.455
0.465
0.46
0.44
0.465
0.475
0.465
0.475
0.465
0.465
0.475
0.475
0.46
0.455
0.475
0.465
0.475
0.46
0.465
0.475
0.475
0.465
0.46
0.455
0.455
0.455
0.455
0.455
0.46
0.455
0.46
0.46
0.455
0.45
0.45
0.45
0.45
0.45
0.445
0.45
0.43
0.45
0.445
0.45
0.45
0.435
0.455
0.45
0.45
0.45
0.45
0.45
0.45
0.45
0.455
0.45
0.455
0.455
0.455
0.45
0.45
0.45
0.455
0.465
0.475
0.46
0.455
0.45
0.45
0.455
0.46
0.455
0.45
0.465
0.455
0.455
0.45
0.455
0.475
0.475
0.48
0.475
0.475
0.475
0.475
0.48
0.475
0.455
0.485
0.495
0.505
0.515
0.515
0.52
0.525
0.525
0.52
0.535
0.545
0.56
0.545
0.54
0.535
0.535
0.535
0.535
0.52
0.525
0.515
0.49
0.485
0.48
0.475
0.455
0.455
0.45
0.45
0.455
0.465
0.465
0.475
0.465
0.475
0.48
0.475
0.46
0.45
0.485
0.585
0.88
1.27
1.78
2.24
2.5
2.46
2.125
1.67
1.195
0.835
0.645
0.57
0.56
0.555
0.53
0.515
0.495
0.485
0.485
0.48
0.475
0.465
0.475
0.48
0.475
0.475
0.46
0.475
0.495
0.495
0.5
0.485
0.495
0.49
0.49
0.495
0.495
0.495
0.5
0.51
0.515
0.515
0.49
0.515
0.525
0.54
0.54
0.535
0.56
0.57
0.57
0.595
0.62
0.625
0.63
0.64
0.64
0.66
0.67
0.695
0.71
0.74
0.755
0.77
0.785
0.785
0.805
0.815
0.825
0.83
0.815
0.79
0.78
0.765
0.745
0.705
0.675
0.655
0.645
0.625
0.605
0.575
0.57
0.56
0.555
0.535
0.525
0.515
0.51
0.495
0.51
0.505
0.505
0.51
0.495
0.505
0.5
0.495
0.495
0.485
0.495
0.49
0.5
0.5
0.5
0.5
0.495
0.5
0.495
0.495
0.49
0.485
0.475
0.475
0.475
0.475
0.475
0.49
0.485
0.485
0.475
0.475
0.485
0.49
0.495
0.485
0.485
0.485
0.485
0.495
0.485
0.475
0.495
0.49
0.495
0.485
0.475
0.495
0.495
0.485
0.475
0.475
0.46
0.475
0.48
0.48
0.475
0.495
0.49
0.495
0.485
0.48
0.475
0.475
0.465
0.455
0.46
0.465
0.475
0.48
0.48
0.49
0.475
0.465
0.465
0.465
0.475
0.46
0.465
0.475
0.465
0.48
0.48
0.475
0.475
0.48
0.465
0.465
0.45
0.465
0.455
0.475
0.475
0.475
0.48
0.475
0.465
0.46
0.475
0.48
0.475
0.48
0.475
0.485
0.465
0.475
0.475
0.465
0.485
0.485
0.485
0.495
0.485
0.48
0.465
0.465
0.48
0.485
0.485
0.495
0.485
0.475
0.475
0.485
0.485
0.485
0.49
0.48
0.485
0.485
0.465
0.49
0.485
0.495
0.49
0.495
0.525
0.53
0.545
0.545
0.54
0.54
0.54
0.57
0.585
0.585
0.58
0.58
0.565
0.565
0.555
0.545
0.535
0.525
0.51
0.495
0.485
0.485
0.49
0.495
0.495
0.485
0.485
0.485
0.485
0.49
0.49
0.49
0.495
0.495
0.495
0.495
0.46
0.495
0.525
0.67
0.995
1.45
1.905
2.295
2.455
2.295
1.925
1.45
1.015
0.71
0.6
0.57
0.58
0.57
0.54
0.515
0.505
0.5
0.495
0.49
0.49
0.49
0.49
0.49
0.495
0.495
0.49
0.495
0.485
0.505
0.5
0.51
0.51
0.515
0.52
0.515
0.515
0.515
0.515
0.53
0.54
0.56
0.54
0.525
0.535
0.56
0.57
0.575
0.6
0.585
0.595
0.61
0.625
0.625
0.625
0.65
0.67
0.705
0.715
0.735
0.75
0.765
0.775
0.785
0.805
0.795
0.81
0.825
0.83
0.835
0.825
0.81
0.785
0.765
0.745
0.725
0.695
0.68
0.655
0.63
0.62
0.605
0.585
0.57
0.565
0.53
0.54
0.555
0.565
0.555
0.525
0.54
0.535
0.535
0.535
0.525
0.52
0.525
0.54
0.545
0.535
0.53
0.52
0.525
0.525
0.52
0.515
0.515
0.525
0.52
0.51
0.515
0.515
0.515
0.52
0.53
0.525
0.535
0.53
0.515
0.515
0.52
0.525
0.53
0.525
0.535
0.515
0.5
0.52
0.525
0.53
0.525
0.515
0.535
0.53
0.53
0.525
0.52
0.525
0.525
0.52
0.53
0.525
0.53
0.53
0.53
0.525
0.525
0.515
0.515
0.505
0.505
0.515
0.515
0.515
0.515
0.505
0.515
0.515
0.495
0.51
0.5
0.51
0.51
0.5
0.51
0.5
0.5
0.5
0.515
0.51
0.515
0.52
0.515
0.495
0.51
0.515
0.51
0.5
0.485
0.495
0.51
0.515
0.51
0.49
0.495
0.495
0.495
0.5
0.49
0.495
0.5
0.505
0.515
0.51
0.515
0.515
0.515
0.51
0.505
0.51
0.515
0.515
0.51
0.51
0.505
0.51
0.525
0.525
0.53
0.52
0.525
0.515
0.52
0.51
0.515
0.5
0.515
0.515
0.515
0.51
0.495
0.52
0.515
0.515
0.515
0.51
0.525
0.525
0.535
0.535
0.535
0.56
0.58
0.575
0.575
0.575
0.57
0.58
0.595
0.615
0.62
0.615
0.615
0.61
0.605
0.585
0.58
0.57
0.56
0.54
0.525
0.505
0.505
0.51
0.51
0.51
0.51
0.5
0.515
0.5
0.505
0.5
0.495
0.51
0.515
0.52
0.515
0.505
0.515
0.58
0.765
1.1
1.54
2.015
2.35
2.405
2.16
1.745
1.285
0.905
0.67
0.6
0.595
0.585
0.57
0.535
0.52
0.52
0.515
0.5
0.51
0.5
0.51
0.51
0.515
0.51
0.515
0.52
0.515
0.515
0.52
0.52
0.525
0.515
0.495
0.52
0.525
0.535
0.54
0.515
0.53
0.535
0.555
0.555
0.54
0.56
0.56
0.57
0.575
0.58
0.6
0.61
0.625
0.64
0.645
0.66
0.67
0.685
0.705
0.71
0.73
0.745
0.755
0.78
0.775
0.79
0.795
0.815
0.81
0.81
0.815
0.81
0.805
0.775
0.76
0.745
0.745
0.7
0.685
0.655
0.64
0.625
0.6
0.585
0.565
0.565
0.545
0.555
0.535
0.54
0.535
0.53
0.53
0.53
0.525
0.52
0.525
0.525
0.52
0.51
0.51
0.505
0.515
0.5
0.51
0.495
0.495
0.495
0.495
0.5
0.495
0.495
0.495
0.485
0.485
0.49
0.5
0.495
0.495
0.495
0.495
0.5
0.5
0.485
0.51
0.51
0.515
0.515
0.52
0.52
0.51
0.5
0.51
0.5
0.5
0.505
0.515
0.515
0.5
0.495
0.495
0.5
0.495
0.5
0.49
0.495
0.495
0.495
0.49
0.49
0.49
0.495
0.495
0.495
0.495
0.485
0.48
0.475
0.495
0.485
0.49
0.475
0.475
0.48
0.475
0.455
0.485
0.49
0.49
0.475
0.45
0.475
0.48
0.475
0.475
0.475
0.495
0.49
0.495
0.495
0.485
0.475
0.48
0.475
0.48
0.485
0.495
0.495
0.495
0.495
0.485
0.475
0.48
0.48
0.475
0.485
0.49
0.49
0.485
0.485
0.475
0.465
0.465
0.48
0.475
0.495
0.495
0.475
0.485
0.49
0.495
0.485
0.48
0.495
0.485
0.485
0.48
0.475
0.48
0.475
0.485
0.485
0.485
0.49
0.48
0.475
0.48
0.485
0.51
0.525
0.535
0.54
0.545
0.535
0.535
0.545
0.58
0.58
0.6
0.595
0.585
0.575
0.56
0.555
0.535
0.535
0.515
0.5
0.495
0.485
0.485
0.485
0.49
0.475
0.45
0.46
0.475
0.485
0.485
0.465
0.495
0.495
0.5
0.5
0.495
0.48
0.5
0.64
0.895
1.315
1.78
2.19
2.405
2.32
1.985
1.545
1.1
0.74
0.575
0.52
0.535
0.535
0.535
0.51
0.505
0.5
0.495
0.495
0.495
0.49
0.495
0.49
0.49
0.49
0.485
0.485
0.465
0.495
0.49
0.495
0.5
0.485
0.5
0.5
0.51
0.5
0.5
0.51
0.51
0.515
0.53
0.53
0.535
0.535
0.555
0.56
0.575
0.585
0.6
0.6
0.61
0.625
0.655
0.665
0.68
0.69
0.71
0.725
0.74
0.76
0.775
0.785
0.805
0.795
0.805
0.82
0.81
0.81
0.825
0.79
0.775
0.75
0.73
0.705
0.665
0.645
0.62
0.61
0.59
0.575
0.56
0.53
0.525
0.51
0.505
0.5
0.505
0.5
0.495
0.495
0.49
0.485
0.48
0.48
0.49
0.485
0.48
0.465
0.465
0.475
0.46
0.475
0.465
0.455
0.46
0.465
0.475
0.475
0.485
0.465
0.465
0.475
0.475
0.48
0.48
0.45
0.475
0.46
0.455
0.475
0.45
0.455
0.45
0.45
0.455
0.455
0.46
0.46
0.475
0.46
0.45
0.45
0.465
0.475
0.465
0.46
0.475
0.455
0.46
0.475
0.475
0.475
0.465
0.465
0.455
0.45
0.425
0.43
0.435
0.435
0.435
0.445
0.45
0.445
0.45
0.45
0.45
0.425
0.435
0.45
0.455
0.445
0.43
0.445
0.45
0.455
0.445
0.435
0.435
0.44
0.435
0.44
0.445
0.46
0.46
0.455
0.44
0.435
0.43
0.435
0.445
0.45
0.44
0.45
0.45
0.455
0.455
0.445
0.45
0.44
0.45
0.445
0.45
0.45
0.455
0.45
0.445
0.45
0.455
0.45
0.455
0.445
0.455
0.465
0.45
0.455
0.45
0.455
0.46
0.455
0.475
0.48
0.48
0.485
0.49
0.5
0.515
0.51
0.525
0.525
0.54
0.56
0.56
0.56
0.54
0.535
0.53
0.52
0.515
0.51
0.495
0.485
0.485
0.475
0.46
0.45
0.45
0.455
0.455
0.465
0.45
0.445
0.445
0.45
0.46
0.455
0.45
0.465
0.475
0.48
0.535
0.755
1.11
1.575
2.065
2.4
2.495
2.275
1.91
1.445
1.025
0.725
0.6
0.565
0.56
0.54
0.52
0.49
0.475
0.475
0.475
0.465
0.465
0.475
0.48
0.475
0.485
0.48
0.485
0.475
0.465
0.465
0.475
0.485
0.495
0.495
0.495
0.5
0.495
0.515
0.515
0.52
0.515
0.495
0.515
0.52
0.535
0.54
0.54
0.56
0.57
0.575
0.59
0.595
0.6
0.62
0.63
0.655
0.665
0.68
0.705
0.73
0.75
0.755
0.765
0.775
0.78
0.79
0.805
0.795
0.805
0.81
0.795
0.77
0.755
0.74
0.71
0.685
0.655
0.625
0.615
0.595
0.58
0.565
0.545
0.525
0.535
0.52
0.515
0.51
0.495
0.5
0.495
0.5
0.505
0.51
0.515
0.5
0.5
0.5
0.49
0.495
0.49
0.49
0.485
0.49
0.495
0.5
0.5
0.495
0.495
0.49
0.475
0.465
0.465
0.475
0.48
0.48
0.485
0.48
0.49
0.49
0.485
0.485
0.495
0.495
0.485
0.455
0.48
0.475
0.495
0.49
0.49
0.49
0.485
0.485
0.48
0.475
0.475
0.48
0.49
0.475
0.475
0.475
0.475
0.485
0.485
0.475
0.46
0.465
0.485
0.475
0.485
0.485
0.48
0.48
0.475
0.48
0.465
0.475
0.475
0.48
0.48
0.475
0.475
0.46
0.46
0.465
0.465
0.45
0.475
0.465
0.465
0.455
0.445
0.46
0.475
0.465
0.465
0.46
0.465
0.455
0.475
0.475
0.475
0.48
0.475
0.465
0.475
0.465
0.475
0.475
0.475
0.48
0.48
0.465
0.465
0.475
0.475
0.465
0.48
0.455
0.48
0.475
0.485
0.485
0.495
0.485
0.475
0.48
0.475
0.465
0.46
0.46
0.48
0.485
0.455
0.48
0.485
0.495
0.495
0.475
0.48
0.49
0.5
0.5
0.5
0.515
0.525
0.535
0.535
0.54
0.545
0.54
0.57
0.585
0.595
0.585
0.575
0.56
0.56
0.565
0.565
0.54
0.53
0.51
0.495
0.495
0.495
0.5
0.5
0.495
0.485
0.485
0.485
0.485
0.485
0.485
0.48
0.5
0.5
0.5
0.495
0.485
0.53
0.655
0.935
1.34
1.835
2.265
2.5
2.425
2.08
1.605
1.17
0.83
0.655
0.6
0.59
0.58
0.565
0.535
0.525
0.505
0.5
0.49
0.49
0.49
0.495
0.495
0.495
0.495
0.5
0.505
0.515
0.51
0.51
0.515
0.515
0.52
0.525
0.525
0.52
0.53
0.525
0.52
0.56
0.56
0.56
0.56
0.57
0.575
0.575
0.58
0.6
0.6
0.61
0.615
0.625
0.64
0.645
0.66
0.67
0.695
0.73
0.745
0.755
0.77
0.775
0.785
0.79
0.81
0.825
0.835
0.855
0.85
0.84
0.815
0.795
0.78
0.76
0.75
0.715
0.7
0.68
0.655
0.63
0.625
0.595
0.585
0.565
0.56
0.54
0.56
0.56
0.555
0.56
0.56
0.56
0.545
0.54
0.54
0.54
0.53
0.535
0.53
0.535
0.525
0.515
0.505
0.515
0.515
0.525
0.53
0.53
0.53
0.525
0.525
0.525
0.53
0.525
0.515
0.515
0.51
0.515
0.52
0.525
0.52
0.51
0.495
0.515
0.515
0.515
0.515
0.5
0.515
0.515
0.52
0.515
0.515
0.525
0.525
0.525
0.535
0.525
0.525
0.515
0.52
0.515
0.51
0.515
0.51
0.515
0.51
0.525
0.525
0.52
0.51
0.505
0.5
0.5
0.485
0.495
0.495
0.51
0.515
0.52
0.515
0.51
0.51
0.5
0.495
0.5
0.49
0.5
0.51
0.49
0.5
0.5
0.51
0.515
0.5
0.515
0.51
0.51
0.505
0.505
0.51
0.5
0.5
0.495
0.49
0.5
0.51
0.515
0.5
0.51
0.505
0.505
0.51
0.51
0.505
0.51
0.505
0.515
0.525
0.525
0.515
0.515
0.52
0.51
0.51
0.5
0.51
0.515
0.515
0.515
0.51
0.495
0.51
0.51
0.515
0.515
0.5
0.52
0.515
0.515
0.51
0.52
0.515
0.52
0.52
0.53
0.53
0.54
0.535
0.54
0.535
0.54
0.56
0.575
0.575
0.585
0.585
0.59
0.615
0.625
0.63
0.61
0.595
0.6
0.595
0.595
0.585
0.585
0.56
0.545
0.535
0.535
0.525
0.495
0.5
0.495
0.5
0.505
0.49
0.515
0.515
0.515
0.525
0.515
0.525
0.535
0.535
0.54
0.61
0.79
1.15
1.61
2.075
2.38
2.415
2.16
1.75
1.315
0.93
0.705
0.62
0.595
0.595
0.58
0.56
0.54
0.535
0.525
0.52
0.525
0.525
0.525
0.525
0.53
0.525
0.535
0.53
0.535
0.54
0.535
0.51
0.52
0.52
0.535
0.54
0.535
0.555
0.545
0.54
0.555
0.56
0.57
0.565
0.57
0.575
0.595
0.595
0.6
0.61
0.62
0.64
0.65
0.66
0.67
0.68
0.7
0.715
0.73
0.735
0.755
0.77
0.79
0.805
0.805
0.825
0.825
0.84
0.845
0.845
0.845
0.83
0.815
0.815
0.775
0.76
0.73
0.71
0.705
0.66
0.64
0.61
0.605
0.605
0.595
0.58
0.58
0.565
0.555
0.54
0.535
0.54
0.53
0.535
0.525
0.535
0.53
0.525
0.53
0.52
0.515
0.525
0.525
0.525
0.53
0.515
0.52
0.515
0.515
0.515
0.515
0.515
0.515
0.515
0.515
0.49
0.5
0.505
0.51
0.515
0.5
0.515
0.5
0.495
0.49
0.495
0.515
0.515
0.525
0.525
0.515
0.515
0.495
0.495
0.495
0.5
0.51
0.515
0.5
0.5
0.5
0.5
0.51
0.495
0.495
0.495
0.495
0.495
0.5
0.485
0.485
0.48
0.49
0.485
0.485
0.495
0.495
0.49
0.495
0.485
0.49
0.48
0.45
0.475
0.465
0.475
0.48
0.455
0.46
0.465
0.475
0.475
0.475
0.48
0.475
0.475
0.465
0.465
0.46
0.46
0.46
0.475
0.48
0.485
0.495
0.495
0.48
0.465
0.455
0.455
0.46
0.46
0.475
0.465
0.475
0.465
0.475
0.475
0.475
0.475
0.485
0.475
0.48
0.485
0.465
0.475
0.46
0.455
0.455
0.445
0.475
0.49
0.495
0.485
0.485
0.48
0.475
0.475
0.46
0.445
0.455
0.465
0.485
0.495
0.515
0.515
0.525
0.535
0.525
0.53
0.54
0.56
0.575
0.585
0.58
0.575
0.575
0.56
0.535
0.52
0.515
0.515
0.5
0.495
0.495
0.475
0.455
0.44
0.45
0.445
0.455
0.435
0.45
0.455
0.465
0.475
0.455
0.475
0.49
0.495
0.495
0.51
0.645
0.925
1.38
1.89
2.305
2.415
2.225
1.795
1.32
0.86
0.61
0.525
0.525
0.535
0.535
0.52
0.505
0.495
0.475
0.475
0.455
0.465
0.465
0.475
0.48
0.46
0.45
0.45
0.45
0.45
0.455
0.45
0.475
0.475
0.48
0.48
0.455
0.48
0.485
0.495
0.495
0.49
0.5
0.5
0.515
0.515
0.52
0.53
0.54
0.565
0.58
0.585
0.585
0.59
0.6
0.615
0.645
0.66
0.68
0.69
0.71
0.735
0.745
0.76
0.775
0.78
0.79
0.795
0.805
0.805
0.795
0.785
0.77
0.77
0.725
0.695
0.665
0.655
0.64
0.58
0.565
0.53
0.515
0.5
0.495
0.495
0.49
0.485
0.485
0.475
0.46
0.465
0.475
0.475
0.465
0.455
0.45
0.45
0.44
0.435
0.44
0.45
0.44
0.45
0.445
0.43
0.45
0.435
0.44
0.43
0.44
0.435
0.44
0.445
0.44
0.44
0.45
0.445
0.44
0.435
0.42
0.44
0.44
0.435
0.43
0.425
0.44
0.435
0.445
0.44
0.43
0.435
0.44
0.445
0.45
0.45
0.435
0.425
0.425
0.43
0.44
0.44
0.44
0.435
0.43
0.43
0.415
0.41
0.415
0.425
0.42
0.415
0.42
0.425
0.41
0.415
0.41
0.415
0.415
0.415
0.415
0.41
0.4
0.415
0.415
0.41
0.41
0.38
0.4
0.41
0.415
0.41
0.41
0.41
0.405
0.41
0.41
0.415
0.425
0.41
0.415
0.415
0.415
0.42
0.43
0.425
0.415
0.41
0.415
0.42
0.43
0.415
0.41
0.4
0.405
0.415
0.43
0.435
0.435
0.43
0.415
0.405
0.41
0.41
0.41
0.425
0.425
0.425
0.425
0.41
0.43
0.425
0.44
0.45
0.465
0.485
0.495
0.495
0.495
0.5
0.52
0.525
0.515
0.51
0.5
0.49
0.49
0.465
0.455
0.455
0.44
0.43
0.43
0.41
0.41
0.405
0.39
0.4
0.4
0.41
0.415
0.415
0.425
0.425
0.44
0.43
0.43
0.425
0.43
0.45
0.545
0.79
1.155
1.665
2.155
2.43
2.395
2.065
1.615
1.17
0.82
0.625
0.535
0.515
0.51
0.495
0.465
0.445
0.435
0.43
0.425
0.415
0.41
0.415
0.425
0.43
0.44
0.43
0.43
0.435
0.43
0.445
0.44
0.44
0.445
0.44
0.45
0.435
0.45
0.45
0.445
0.455
0.46
0.45
0.465
0.475
0.485
0.495
0.495
0.515
0.52
0.53
0.535
0.555
0.57
0.595
0.61
0.615
0.63
0.65
0.66
0.67
0.69
0.7
0.715
0.73
0.75
0.755
0.76
0.76
0.76
0.75
0.74
0.725
0.71
0.695
0.675
0.655
0.62
0.595
0.57
0.555
0.525
0.515
0.5
0.495
0.485
0.475
0.465
0.465
0.435
0.45
0.445
0.455
0.455
0.445
0.45
0.45
0.445
0.44
0.44
0.435
0.435
0.44
0.45
0.45
0.44
0.44
0.44
0.435
0.44
0.43
0.435
0.435
0.435
0.44
0.43
0.43
0.42
0.415
0.42
0.415
0.415
0.425
0.43
0.435
0.43
0.43
0.425
0.43
0.43
0.425
0.415
0.44
0.445
0.445
0.455
0.435
0.45
0.445
0.44
0.435
0.43
0.43
0.425
0.42
0.41
0.41
0.415
0.415
0.415
0.415
0.425
0.415
0.415
0.415
0.415
0.42
0.42
0.43
0.43
0.435
0.45
0.445
0.445
0.44
0.435
0.43
0.42
0.42
0.41
0.41
0.41
0.41
0.395
0.425
0.42
0.43
0.43
0.41
0.425
0.415
0.43
0.425
0.425
0.425
0.43
0.425
0.42
0.425
0.43
0.43
0.445
0.45
0.45
0.45
0.45
0.45
0.45
0.445
0.43
0.435
0.435
0.43
0.43
0.43
0.42
0.44
0.44
0.445
0.435
0.44
0.425
0.43
0.44
0.435
0.45
0.455
0.475
0.49
0.485
0.475
0.505
0.505
0.51
0.525
0.525
0.555
0.56
0.555
0.535
0.53
0.53
0.525
0.515
0.505
0.495
0.48
0.455
0.45
0.435
0.44
0.44
0.44
0.445
0.44
0.445
0.45
0.45
0.45
0.45
0.45
0.45
0.455
0.455
0.45
0.495
0.64
0.95
1.4
1.89
2.305
2.475
2.345
1.965
1.49
1.035
0.705
0.545
0.535
0.535
0.525
0.505
0.485
0.46
0.455
0.465
0.465
0.455
0.45
0.45
0.45
0.45
0.455
0.46
0.465
0.475
0.48
0.485
0.475
0.465
0.465
0.46
0.475
0.485
0.485
0.485
0.485
0.495
0.5
0.51
0.52
0.525
0.535
0.525
0.52
0.54
0.565
0.57
0.58
0.6
0.6
0.615
0.625
0.645
0.66
0.67
0.685
0.705
0.73
0.75
0.76
0.76
0.765
0.765
0.775
0.79
0.795
0.775
0.765
0.735
0.71
0.69
0.68
0.655
0.62
0.61
0.585
0.57
0.545
0.54
0.52
0.515
0.51
0.505
0.5
0.495
0.495
0.495
0.495
0.495
0.485
0.45
0.475
0.455
0.465
0.49
0.475
0.485
0.49
0.485
0.48
0.475
0.475
0.465
0.465
0.45
0.45
0.46
0.485
0.495
0.475
0.465
0.45
0.455
0.455
0.45
0.455
0.45
0.455
0.455
0.455
0.46
0.46
0.475
0.475
0.475
0.465
0.475
0.485
0.495
0.485
0.485
0.475
0.45
0.46
0.455
0.455
0.455
0.445
0.455
0.455
0.465
0.455
0.45
0.45
0.455
0.46
0.475
0.465
0.455
0.45
0.455
0.465
0.475
0.465
0.475
0.475
0.475
0.475
0.46
0.45
0.45
0.45
0.45
0.445
0.43
0.45
0.45
0.46
0.45
0.45
0.45
0.455
0.465
0.46
0.475
0.475
0.475
0.475
0.475
0.445
0.465
0.46
0.46
0.46
0.465
0.48
0.49
0.49
0.485
0.475
0.475
0.455
0.45
0.45
0.455
0.475
0.475
0.475
0.475
0.475
0.48
0.48
0.485
0.49
0.495
0.495
0.51
0.5
0.515
0.52
0.535
0.535
0.535
0.52
0.53
0.545
0.58
0.585
0.595
0.575
0.57
0.535
0.535
0.53
0.525
0.525
0.5
0.505
0.495
0.485
0.48
0.475
0.475
0.46
0.46
0.465
0.46
0.46
0.46
0.475
0.485
0.495
0.495
0.485
0.485
0.535
0.685
1.0
1.46
1.96
2.35
2.46
2.24
1.78
1.325
0.905
0.655
0.57
0.56
0.565
0.565
0.54
0.525
0.495
0.5
0.5
0.515
0.5
0.48
0.49
0.495
0.505
0.505
0.515
0.515
0.515
0.505
0.5
0.5
0.515
0.51
0.52
0.53
0.535
0.535
0.535
0.53
0.53
0.555
0.545
0.555
0.56
0.58
0.59
0.585
0.57
0.6
0.61
0.64
0.655
0.665
0.675
0.685
0.7
0.715
0.735
0.74
0.755
0.775
0.81
0.835
0.825
0.825
0.82
0.83
0.835
0.815
0.805
0.78
0.76
0.74
0.71
0.69
0.665
0.655
0.64
0.615
0.585
0.57
0.57
0.57
0.56
0.545
0.555
0.54
0.53
0.535
0.54
0.53
0.535
0.525
0.52
0.525
0.53
0.525
0.525
0.515
0.51
0.515
0.525
0.525
0.515
0.495
0.515
0.515
0.51
0.51
0.49
0.51
0.515
0.515
0.51
0.495
0.5
0.5
0.51
0.5
0.5
0.515
0.515
0.52
0.515
0.52
0.52
0.525
0.515
0.51
0.515
0.515
0.515
0.53
0.525
0.525
0.515
0.505
0.5
0.505
0.51
0.52
0.51
0.51
0.5
0.495
0.49
0.48
0.49
0.495
0.505
0.51
0.485
0.505
0.5
0.5
0.495
0.49
0.49
0.49
0.5
0.495
0.49
0.495
0.5
0.51
0.5
0.5
0.495
0.5
0.5
0.49
0.49
0.5
0.515
0.515
0.5
0.495
0.495
0.49
0.51
0.5
0.495
0.505
0.5
0.505
0.51
0.51
0.51
0.5
0.5
0.495
0.495
0.495
0.48
0.495
0.5
0.505
0.5
0.49
0.5
0.515
0.515
0.515
0.495
0.5
0.505
0.515
0.51
0.515
0.515
0.515
0.525
0.535
0.56
0.575
0.58
0.57
0.56
0.565
0.58
0.595
0.61
0.62
0.62
0.62
0.605
0.59
0.585
0.58
0.57
0.555
0.54
0.53
0.525
0.515
0.485
0.5
0.51
0.515
0.515
0.5
0.515
0.505
0.505
0.515
0.515
0.53
0.535
0.535
0.535
0.585
0.74
1.055
1.505
1.975
2.33
2.405
2.17
1.755
1.305
0.92
0.705
0.625
0.6
0.6
0.585
0.58
0.555
0.545
0.53
0.53
0.51
0.515
0.515
0.525
0.535
0.535
0.525
0.535
0.535
0.535
0.54
0.525
0.54
0.555
0.56
0.57
0.56
0.56
0.54
0.555
0.56
0.57
0.575
0.58
0.58
0.6
0.61
0.615
0.625
0.625
0.64
0.655
0.655
0.665
0.675
0.695
0.7
0.73
0.745
0.765
0.785
0.795
0.815
0.825
0.835
0.835
0.835
0.845
0.84
0.85
0.84
0.82
0.81
0.795
0.765
0.75
0.725
0.69
0.67
0.64
0.625
0.6
0.595
0.58
0.575
0.57
0.565
0.56
0.56
0.56
0.545
0.53
0.53
0.54
0.54
0.545
0.56
0.56
0.54
0.535
0.53
0.525
0.515
0.525
0.535
0.54
0.535
0.515
0.515
0.51
0.52
0.53
0.525
0.515
0.51
0.485
0.495
0.5
0.515
0.525
0.51
0.52
0.515
0.525
0.515
0.51
0.515
0.525
0.53
0.535
0.54
0.555
0.535
0.505
0.495
0.495
0.5
0.51
0.515
0.52
0.51
0.505
0.515
0.525
0.52
0.52
0.515
0.485
0.495
0.495
0.51
0.5
0.5
0.515
0.515
0.51
0.51
0.5
0.5
0.5
0.495
0.495
0.475
0.49
0.485
0.485
0.48
0.465
0.495
0.495
0.5
0.5
0.5
0.5
0.5
0.5
0.5
0.495
0.495
0.495
0.495
0.495
0.495
0.495
0.485
0.495
0.5
0.5
0.51
0.495
0.495
0.485
0.495
0.5
0.5
0.51
0.5
0.505
0.5
0.5
0.495
0.5
0.515
0.515
0.49
0.505
0.495
0.495
0.495
0.475
0.495
0.5
0.5
0.495
0.49
0.5
0.525
0.545
0.56
0.555
0.54
0.56
0.57
0.58
0.585
0.59
0.585
0.58
0.57
0.57
0.56
0.54
0.535
0.525
0.52
0.515
0.5
0.495
0.48
0.475
0.475
0.475
0.485
0.495
0.5
0.495
0.46
0.49
0.485
0.5
0.5
0.485
0.495
0.525
0.665
0.98
1.44
1.94
2.325
2.43
2.215
1.795
1.295
0.85
0.59
0.525
0.54
0.555
0.54
0.52
0.495
0.485
0.485
0.485
0.49
0.49
0.5
0.495
0.475
0.49
0.495
0.495
0.495
0.495
0.495
0.5
0.495
0.485
0.5
0.515
0.515
0.525
0.515
0.485
0.5
0.51
0.53
0.525
0.525
0.555
0.565
0.58
0.575
0.57
0.58
0.585
0.6
0.615
0.645
0.655
0.66
0.675
0.685
0.685
0.71
0.73
0.75
0.775
0.78
0.79
0.795
0.795
0.81
0.805
0.795
0.79
0.765
0.75
0.725
0.69
0.67
0.64
0.6
0.58
0.56
0.53
0.54
0.525
0.52
0.515
0.485
0.495
0.495
0.5
0.5
0.495
0.495
0.49
0.475
0.475
0.475
0.475
0.465
0.475
0.465
0.475
0.475
0.475
0.475
0.465
0.46
0.455
0.455
0.45
0.45
0.455
0.45
0.445
0.45
0.455
0.455
0.45
0.46
0.465
0.465
0.485
0.475
0.475
0.46
0.455
0.46
0.45
0.435
0.455
0.46
0.475
0.465
0.46
0.475
0.46
0.455
0.455
0.465
0.475
0.475
0.465
0.45
0.45
0.45
0.455
0.455
0.46
0.455
0.45
0.43
0.42
0.425
0.44
0.435
0.435
0.435
0.44
0.435
0.435
0.435
0.435
0.435
0.45
0.435
0.43
0.425
0.43
0.435
0.44
0.43
0.45
0.44
0.45
0.435
0.415
0.43
0.43
0.425
0.43
0.43
0.45
0.445
0.45
0.45
0.45
0.435
0.43
0.43
0.425
0.435
0.44
0.435
0.44
0.435
0.44
0.45
0.45
0.44
0.45
0.455
0.45
0.445
0.45
0.435
0.445
0.435
0.435
0.445
0.44
0.45
0.435
0.425
0.445
0.445
0.455
0.46
0.45
0.475
0.495
0.51
0.51
0.5
0.5
0.505
0.525
0.545
0.565
0.545
0.53
0.53
0.52
0.515
0.5
0.5
0.495
0.48
0.465
0.45
0.45
0.45
0.45
0.445
0.43
0.425
0.44
0.435
0.445
0.44
0.44
0.45
0.46
0.475
0.465
0.455
0.52
0.725
1.115
1.615
2.13
2.445
2.465
2.19
1.755
1.265
0.86
0.64
0.545
0.525
0.53
0.52
0.5
0.495
0.465
0.45
0.45
0.45
0.455
0.445
0.45
0.45
0.46
0.465
0.465
0.475
0.465
0.48
0.48
0.475
0.485
0.485
0.495
0.495
0.495
0.5
0.505
0.515
0.515
0.51
0.52
0.52
0.5
0.525
0.52
0.53
0.555
0.54
0.58
0.585
0.595
0.61
0.625
0.64
0.66
0.67
0.685
0.71
0.735
0.75
0.755
0.77
0.775
0.775
0.79
0.785
0.805
0.77
0.77
0.75
0.725
0.685
0.645
0.605
0.59
0.58
0.565
0.56
0.54
0.525
0.52
0.505
0.51
0.495
0.48
0.49
0.49
0.495
0.495
0.475
0.495
0.49
0.5
0.495
0.495
0.485
0.475
0.48
0.49
0.49
0.485
0.465
0.455
0.445
0.45
0.45
0.45
0.455
0.465
0.475
0.465
0.465
0.475
0.475
0.46
0.45
0.435
0.45
0.46
0.475
0.475
0.475
0.475
0.475
0.48
0.485
0.485
0.485
0.475
0.475
0.46
0.45
0.485
0.48
0.48
0.475
0.45
0.455
0.455
0.45
0.45
0.45
0.46
0.455
0.45
0.445
0.45
0.45
0.45
0.465
0.475
0.475
0.46
0.455
0.455
0.45
0.465
0.455
0.465
0.475
0.475
0.465
0.455
0.45
0.45
0.455
0.46
0.45
0.45
0.455
0.445
0.45
0.44
0.425
0.445
0.455
0.475
0.465
0.455
0.46
0.465
0.455
0.455
0.455
0.475
0.465
0.485
0.48
0.475
0.465
0.475
0.475
0.475
0.46
0.465
0.455
0.475
0.475
0.48
0.475
0.46
0.475
0.485
0.485
0.48
0.465
0.465
0.475
0.485
0.48
0.48
0.48
0.48
0.475
0.465
0.475
0.485
0.48
0.475
0.485
0.48
0.52
0.535
0.555
0.535
0.53
0.53
0.54
0.565
0.585
0.595
0.58
0.58
0.56
0.56
0.545
0.545
0.535
0.515
0.5
0.495
0.495
0.49
0.475
0.46
0.48
0.48
0.475
0.48
0.48
0.485
0.485
0.485
0.48
0.475
0.485
0.48
0.515
0.64
0.91
1.335
1.805
2.225
2.425
2.355
2.03
1.595
1.16
0.82
0.65
0.575
0.56
0.54
0.535
0.525
0.515
0.505
0.49
0.495
0.485
0.495
0.495
0.5
0.5
0.495
0.495
0.495
0.495
0.5
0.51
0.515
0.525
0.525
0.515
0.51
0.5
0.5
0.51
0.525
0.535
0.545
0.54
0.545
0.54
0.525
0.56
0.56
0.57
0.585
0.615
0.615
0.625
0.645
0.65
0.66
0.675
0.685
0.695
0.715
0.735
0.745
0.755
0.775
0.79
0.795
0.83
0.83
0.82
0.805
0.78
0.775
0.765
0.745
0.725
0.7
0.685
0.67
0.655
0.645
0.62
0.6
0.575
0.57
0.565
0.545
0.535
0.535
0.535
0.52
0.53
0.515
0.5
0.52
0.525
0.53
0.525
0.525
0.525
0.525
0.525
0.52
0.525
0.51
0.515
0.515
0.51
0.51
0.51
0.515
0.515
0.51
0.51
0.51
0.495
0.49
0.495
0.5
0.5
0.51
0.505
0.515
0.515
0.51
0.515
0.515
0.52
0.525
0.51
0.525
0.535
0.53
0.525
0.515
0.495
0.51
0.51
0.515
0.515
0.505
0.52
0.525
0.535
0.52
0.5
0.5
0.495
0.5
0.5
0.5
0.5
0.5
0.51
0.515
0.51
0.5
0.495
0.5
0.505
0.51
0.495
0.495
0.505
0.51
0.525
0.515
0.51
0.505
0.495
0.5
0.5
0.505
0.51
0.5
0.505
0.5
0.485
0.51
0.505
0.51
0.495
0.475
0.495
0.505
0.525
0.525
0.515
0.51
0.5
0.495
0.49
0.5
0.52
0.52
0.52
0.52
0.515
0.515
0.51
0.5
0.495
0.5
0.515
0.51
0.51
0.5
0.5
0.505
0.495
0.515
0.51
0.51
0.515
0.515
0.515
0.52
0.525
0.525
0.52
0.525
0.525
0.525
0.52
0.51
0.53
0.54
0.555
0.565
0.56
0.575
0.575
0.57
0.58
0.6
0.615
0.62
0.61
0.6
0.6
0.59
0.585
0.58
0.56
0.545
0.535
0.525
0.525
0.515
0.5
0.52
0.52
0.51
0.505
0.505
0.52
0.525
0.525
0.52
0.52
0.525
0.525
0.525
0.53
0.61
0.835
1.24
1.69
2.14
2.41
2.38
2.085
1.645
1.165
0.795
0.62
0.57
0.585
0.6
0.58
0.555
0.525
0.525
0.52
0.525
0.525
0.525
0.535
0.535
0.535
0.535
0.52
0.515
0.515
0.525
0.525
0.53
0.535
0.54
0.54
0.54
0.53
0.525
0.525
0.54
0.555
0.56
0.56
0.555
0.58
0.59
0.6
0.6
0.62
0.605
0.615
0.62
0.645
0.655
0.66
0.675
0.7
0.71
0.725
0.745
0.765
0.78
0.795
0.81
0.82
0.825
0.84
0.85
0.85
0.855
0.85
0.845
0.82
0.785
0.76
0.735
0.725
0.7
0.68
0.66
0.64
0.61
0.585
0.57
0.555
0.54
0.54
0.54
0.54
0.535
0.51
0.515
0.515
0.515
0.52
0.515
0.52
0.52
0.515
0.515
0.515
0.515
0.51
0.525
0.525
0.515
0.52
0.52
0.52
0.515
0.5
0.495
0.495
0.495
0.49
0.5
0.495
0.505
0.505
0.505
0.51
0.515
0.515
0.515
0.515
0.525
0.52
0.525
0.52
0.53
0.525
0.51
0.485
0.505
0.505
0.505
0.5
0.485
0.495
0.49
0.495
0.495
0.5
0.515
0.505
0.505
0.5
0.495
0.49
0.485
0.495
0.495
0.49
0.485
0.485
0.485
0.485
0.495
0.485
0.49
0.49
0.485
0.485
0.485
0.48
0.485
0.475
0.49
0.485
0.485
0.485
0.48
0.475
0.475
0.465
0.485
0.485
0.48
0.465
0.45
0.465
0.475
0.485
0.49
0.49
0.495
0.485
0.48
0.485
0.485
0.495
0.485
0.485
0.485
0.485
0.485
0.485
0.485
0.485
0.495
0.495
0.495
0.495
0.49
0.495
0.485
0.485
0.495
0.495
0.5
0.5
0.5
0.51
0.515
0.53
0.53
0.535
0.535
0.54
0.555
0.575
0.61
0.595
0.59
0.585
0.58
0.545
0.56
0.54
0.535
0.525
0.51
0.51
0.5
0.5
0.49
0.485
0.495
0.49
0.495
0.485
0.485
0.49
0.495
0.48
0.485
0.49
0.5
0.51
0.505
0.525
0.645
0.905
1.335
1.83
2.29
2.52
2.42
2.02
1.57
1.09
0.76
0.615
0.555
0.56
0.56
0.56
0.54
0.515
0.52
0.51
0.495
0.485
0.48
0.48
0.485
0.495
0.5
0.495
0.5
0.495
0.5
0.5
0.51
0.505
0.515
0.51
0.51
0.52
0.515
0.51
0.525
0.535
0.545
0.56
0.535
0.565
0.56
0.56
0.57
0.585
0.595
0.6
0.61
0.625
0.655
0.66
0.67
0.675
0.685
0.725
0.73
0.75
0.75
0.775
0.81
0.815
0.835
0.83
0.83
0.82
0.815
0.805
0.79
0.77
0.755
0.735
0.7
0.67
0.65
0.625
0.625
0.61
0.585
0.57
0.555
0.53
0.525
0.52
0.525
0.53
0.525
0.52
0.51
0.5
0.5
0.505
0.5
0.5
0.5
0.51
0.51
0.495
0.5
0.5
0.5
0.49
0.475
0.49
0.5
0.5
0.495
0.475
0.485
0.49
0.495
0.495
0.49
0.485
0.485
0.485
0.485
0.48
0.48
0.485
0.49
0.49
0.485
0.48
0.495
0.5
0.515
0.5
0.495
0.475
0.475
0.48
0.5
0.5
0.495
0.49
0.49
0.495
0.485
0.475
0.5
0.495
0.495
0.49
0.455
0.475
0.46
0.465
0.46
0.455
0.46
0.455
0.455
0.465
0.46
0.46
0.455
0.455
0.46
0.465
0.475
0.48
0.48
0.475
0.485
0.485
0.48
0.49
0.495
0.475
0.45
0.435
0.435
0.445
0.455
0.46
0.455
0.465
0.465
0.485
0.485
0.475
0.48
0.465
0.475
0.475
0.455
0.48
0.475
0.455
0.455
0.445
0.465
0.485
0.495
0.49
0.475
0.465
0.455
0.46
0.465
0.465
0.475
0.48
0.48
0.465
0.475
0.465
0.48
0.495
0.495
0.49
0.49
0.475
0.475
0.46
0.48
0.475
0.475
0.475
0.475
0.485
0.49
0.5
0.505
0.515
0.54
0.535
0.52
0.53
0.535
0.545
0.575
0.6
0.58
0.565
0.545
0.535
0.515
0.52
0.515
0.51
0.5
0.495
0.49
0.475
0.46
0.45
0.45
0.44
0.45
0.475
0.475
0.485
0.48
0.465
0.475
0.485
0.5
0.475
0.455
0.515
0.705
1.07
1.575
2.085
2.455
2.525
2.275
1.835
1.345
0.925
0.67
0.555
0.54
0.52
0.53
0.505
0.495
0.48
0.465
0.475
0.485
0.48
0.48
0.475
0.475
0.475
0.465
0.475
0.475
0.48
0.49
0.485
0.485
0.485
0.485
0.485
0.495
0.495
0.5
0.495
0.5
0.51
0.51
0.515
0.535
0.555
0.565
0.555
0.545
0.54
0.56
0.585
0.6
0.605
0.625
0.655
0.655
0.67
0.69
0.705
0.735
0.725
0.74
0.76
0.77
0.785
0.79
0.795
0.815
0.815
0.815
0.79
0.77
0.74
0.725
0.69
0.67
0.655
0.64
0.62
0.59
0.58
0.56
0.54
0.535
0.52
0.515
0.51
0.505
0.51
0.505
0.5
0.5
0.51
0.5
0.495
0.495
0.46
0.5
0.51
0.515
0.5
0.475
0.495
0.495
0.49
0.49
0.475
0.485
0.49
0.495
0.495
0.485
0.475
0.485
0.48
0.475
0.475
0.49
0.49
0.485
0.485
0.48
0.475
0.485
0.48
0.465
0.475
0.49
0.485
0.51
0.5
0.495
0.495
0.485
0.495
0.485
0.495
0.49
0.495
0.5
0.495
0.495
0.485
0.46
0.48
0.49
0.485
0.48
0.455
0.455
0.45
0.46
0.465
0.485
0.5
0.5
0.5
0.485
0.455
0.45
0.445
0.45
0.45
0.455
0.45
0.45
0.475
0.475
0.485
0.49
0.48
0.49
0.49
0.485
0.475
0.475
0.465
0.455
0.455
0.45
0.45
0.46
0.465
0.485
0.485
0.46
0.475
0.465
0.465
0.455
0.435
0.46
0.465
0.48
0.485
0.475
0.48
0.49
0.485
0.485
0.475
0.49
0.485
0.495
0.485
0.49
0.485
0.48
0.49
0.495
0.495
0.495
0.48
0.48
0.465
0.475
0.475
0.485
0.485
0.485
0.485
0.49
0.495
0.495
0.485
0.495
0.495
0.485
0.5
0.51
0.52
0.525
0.515
0.54
0.54
0.56
0.555
0.575
0.595
0.6
0.585
0.58
0.56
0.56
0.54
0.53
0.525
0.515
0.505
0.51
0.5
0.495
0.495
0.48
0.465
0.475
0.49
0.485
0.485
0.465
0.475
0.48
0.485
0.485
0.495
0.495
0.48
0.5
0.59
0.82
1.19
1.645
2.075
2.36
2.365
2.075
1.65
1.185
0.82
0.64
0.58
0.575
0.56
0.555
0.525
0.52
0.5
0.495
0.495
0.48
0.475
0.48
0.48
0.475
0.475
0.485
0.49
0.49
0.495
0.495
0.49
0.48
0.485
0.485
0.495
0.495
0.505
0.515
0.515
0.525
0.525
0.535
0.535
0.53
0.54
0.54
0.53
0.56
0.565
0.58
0.59
0.625
0.61
0.62
0.62
0.64
0.67
0.685
0.7
0.715
0.725
0.735
0.755
0.77
0.77
0.775
0.78
0.805
0.805
0.79
0.79
0.78
0.765
0.75
0.725
0.69
0.66
0.645
0.61
0.58
0.565
0.57
0.555
0.54
0.525
0.525
0.535
0.52
0.5
0.5
0.5
0.5
0.49
0.48
0.495
0.495
0.495
0.5
0.495
0.5
0.495
0.495
0.49
0.495
0.495
0.495
0.495
0.49
0.48
0.485
0.485
0.49
0.485
0.475
0.475
0.48
0.5
0.5
0.495
0.495
0.48
0.475
0.485
0.49
0.485
0.495
0.5
0.5
0.505
0.495
0.505
0.51
0.5
0.5
0.495
0.475
0.485
0.495
0.485
0.485
0.46
0.485
0.485
0.495
0.485
0.485
0.475
0.475
0.475
0.475
0.465
0.46
0.465
0.48
0.475
0.475
0.475
0.475
0.475
0.485
0.475
0.485
0.475
0.465
0.455
0.48
0.465
0.485
0.485
0.485
0.485
0.465
0.455
0.45
0.445
0.455
0.465
0.45
0.465
0.465
0.475
0.475
0.455
0.465
0.46
0.475
0.475
0.475
0.48
0.48
0.485
0.485
0.475
0.475
0.46
0.46
0.475
0.48
0.48
0.49
0.475
0.455
0.45
0.455
0.475
0.485
0.485
0.485
0.475
0.46
0.495
0.495
0.495
0.49
0.495
0.495
0.495
0.495
0.485
0.495
0.495
0.495
0.49
0.48
0.45
0.485
0.505
0.525
0.535
0.535
0.555
0.54
0.555
0.56
0.555
0.575
0.57
0.56
0.56
0.57
0.555
0.555
0.555
0.54
0.53
0.51
0.49
0.48
0.465
0.475
0.475
0.475
0.475
0.475
0.475
0.475
0.475
0.48
0.485
0.5
0.49
0.495
0.465
0.475
0.515
0.65
0.95
1.35
1.83
2.215
2.38
2.26
1.875
1.415
0.985
0.695
0.56
0.545
0.555
0.56
0.535
0.515
0.5
0.495
0.485
0.49
0.49
0.495
0.5
0.5
0.495
0.495
0.49
0.495
0.49
0.495
0.49
0.5
0.51
0.51
0.51
0.515
0.505
0.5
0.515
0.515
0.525
0.525
0.51
0.53
0.53
0.555
0.545
0.545
0.575
0.585
0.585
0.595
0.605
0.625
0.655
0.665
0.67
0.68
0.68
0.695
0.71
0.725
0.73
0.75
0.76
0.77
0.785
0.79
0.795
0.79
0.78
0.775
0.765
0.76
0.735
0.71
0.7
0.675
0.655
0.645
0.61
0.585
0.57
0.56
0.56
0.555
0.54
0.53
0.515
0.495
0.51
0.5
0.5
0.5
0.495
0.5
0.495
0.5
0.485
0.475
0.485
0.485
0.495
0.495
0.49
0.5
0.5
0.5
0.495
0.48
0.475
0.465
0.465
0.475
0.485
0.49
0.495
0.5
0.5
0.495
0.495
0.485
0.485
0.475
0.48
0.49
0.485
0.49
0.495
0.495
0.495
0.475
0.495
0.495
0.515
0.5
0.475
0.49
0.485
0.5
0.495
0.49
0.495
0.48
0.465
0.46
0.45
0.465
0.475
0.485
0.48
0.48
0.465
0.48
0.485
0.475
0.465
0.465
0.465
0.48
0.465
0.465
0.455
0.46
0.465
0.465
0.465
0.465
0.475
0.48
0.46
0.475
0.465
0.46
0.475
0.475
0.475
0.455
0.44
0.465
0.46
0.475
0.475
0.46
0.465
0.455
0.46
0.455
0.455
0.465
0.475
0.485
0.465
0.465
0.475
0.465
0.475
0.48
0.48
0.475
0.465
0.48
0.48
0.475
0.465
0.45
0.455
0.455
0.465
0.48
0.475
0.46
0.46
0.465
0.465
0.475
0.475
0.465
0.49
0.485
0.465
0.485
0.495
0.5
0.515
0.5
0.535
0.545
0.54
0.53
0.515
0.525
0.535
0.57
0.58
0.58
0.57
0.57
0.57
0.56
0.535
0.53
0.515
0.5
0.485
0.475
0.46
0.475
0.485
0.485
0.485
0.48
0.475
0.475
0.475
0.475
0.475
0.48
0.495
0.495
0.485
0.475
0.5
0.67
0.965
1.4
1.88
2.265
2.395
2.195
1.78
1.305
0.905
0.67
0.585
0.565
0.555
0.53
0.525
0.515
0.505
0.495
0.49
0.485
0.475
0.48
0.48
0.48
0.485
0.495
0.49
0.49
0.495
0.5
0.49
0.5
0.5
0.5
0.495
0.5
0.51
0.515
0.525
0.525
0.535
0.525
0.53
0.54
0.53
0.525
0.56
0.57
0.575
0.585
0.6
0.585
0.6
0.62
0.64
0.655
0.66
0.67
0.68
0.695
0.71
0.73
0.74
0.75
0.765
0.775
0.775
0.78
0.78
0.785
0.79
0.79
0.775
0.76
0.745
0.71
0.695
0.67
0.655
0.65
0.62
0.61
0.585
0.56
0.555
0.54
0.525
0.495
0.515
0.51
0.525
0.515
0.495
0.495
0.495
0.495
0.49
0.485
0.49
0.495
0.5
0.495
0.495
0.495
0.495
0.495
0.495
0.48
0.49
0.495
0.49
0.495
0.485
0.495
0.485
0.49
0.48
0.475
0.475
0.475
0.475
0.465
0.48
0.485
0.495
0.5
0.5
0.5
0.475
0.45
0.455
0.46
0.48
0.48
0.465
0.485
0.495
0.495
0.485
0.475
0.485
0.49
0.49
0.495
0.49
0.49
0.465
0.475
0.465
0.475
0.465
0.465
0.465
0.455
0.455
0.45
0.45
0.45
0.455
0.455
0.455
0.45
0.45
0.45
0.45
0.45
0.45
0.455
0.455
0.465
0.455
0.46
0.455
0.465
0.48
0.475
0.455
0.465
0.45
0.445
0.445
0.43
0.45
0.45
0.445
0.45
0.445
0.45
0.45
0.455
0.455
0.455
0.45
0.455
0.465
0.475
0.465
0.465
0.455
0.455
0.455
0.475
0.475
0.475
0.475
0.46
0.465
0.455
0.45
0.45
0.45
0.46
0.465
0.46
0.465
0.455
0.45
0.445
0.43
0.46
0.475
0.485
0.48
0.455
0.475
0.475
0.465
0.465
0.465
0.485
0.5
0.51
0.515
0.515
0.525
0.515
0.515
0.52
0.54
0.57
0.57
0.57
0.56
0.56
0.54
0.535
0.53
0.52
0.505
0.495
0.485
0.475
0.45
0.44
0.435
0.45
0.445
0.45
0.475
0.475
0.465
0.475
0.48
0.475
0.46
0.45
0.455
0.45
0.465
0.56
0.785
1.175
1.65
2.105
2.38
2.365
2.045
1.615
1.175
0.835
0.625
0.57
0.555
0.535
0.525
0.51
0.495
0.485
0.48
0.465
0.475
0.455
0.45
0.455
0.465
0.475
0.475
0.48
0.475
0.475
0.485
0.465
0.475
0.475
0.475
0.49
0.49
0.475
0.495
0.495
0.5
0.505
0.5
0.515
0.505
0.52
0.525
0.53
0.535
0.54
0.54
0.545
0.555
0.57
0.58
0.6
0.625
0.63
0.645
0.66
0.67
0.685
0.7
0.71
0.71
0.71
0.735
0.745
0.755
0.76
0.78
0.775
0.765
0.75
0.73
0.71
0.695
0.665
0.655
0.64
0.595
0.58
0.56
0.54
0.52
0.535
0.525
0.52
0.5
0.495
0.485
0.48
0.485
0.475
0.485
0.485
0.49
0.495
0.485
0.495
0.485
0.485
0.475
0.475
0.475
0.48
0.48
0.48
0.465
0.48
0.475
0.455
0.475
0.475
0.475
0.455
0.465
0.475
0.465
0.465
0.465
0.465
0.46
0.455
0.465
0.465
0.45
0.465
0.465
0.475
0.475
0.475
0.475
0.475
0.475
0.48
0.485
0.475
0.475
0.46
0.455
0.455
0.455
0.475
0.475
0.475
0.475
0.475
0.455
0.455
0.455
0.455
0.45
0.44
0.445
0.45
0.46
0.455
0.455
0.455
0.445
0.455
0.45
0.44
0.45
0.45
0.455
0.44
0.415
0.43
0.43
0.445
0.445
0.435
0.455
0.455
0.455
0.45
0.44
0.45
0.45
0.45
0.45
0.45
0.455
0.455
0.455
0.455
0.45
0.45
0.44
0.455
0.455
0.455
0.45
0.445
0.45
0.455
0.465
0.455
0.465
0.465
0.45
0.455
0.455
0.46
0.46
0.475
0.455
0.455
0.44
0.465
0.455
0.465
0.455
0.45
0.46
0.475
0.46
0.46
0.465
0.48
0.48
0.485
0.5
0.515
0.52
0.525
0.525
0.535
0.54
0.56
0.58
0.565
0.56
0.56
0.56
0.56
0.555
0.53
0.525
0.515
0.48
0.485
0.475
0.455
0.445
0.45
0.455
0.455
0.455
0.455
0.465
0.475
0.475
0.475
0.475
0.45
0.475
0.48
0.49
0.545
0.73
1.03
1.475
1.935
2.275
2.395
2.17
1.765
1.31
0.935
0.69
0.6
0.56
0.54
0.53
0.515
0.51
0.495
0.49
0.485
0.485
0.485
0.485
0.495
0.495
0.495
0.485
0.48
0.475
0.465
0.465
0.485
0.495
0.5
0.51
0.515
0.51
0.495
0.51
0.5
0.5
0.51
0.495
0.52
0.52
0.53
0.535
0.535
0.555
0.565
0.57
0.58
0.595
0.61
0.62
0.625
0.645
0.64
0.66
0.685
0.695
0.715
0.725
0.745
0.755
0.755
0.775
0.775
0.78
0.775
0.78
0.79
0.775
0.765
0.75
0.73
0.695
0.66
0.655
0.655
0.62
0.59
0.57
0.56
0.525
0.525
0.515
0.515
0.51
0.515
0.515
0.515
0.51
0.5
0.495
0.495
0.48
0.475
0.475
0.495
0.495
0.495
0.495
0.495
0.495
0.49
0.48
0.475
0.475
0.485
0.48
0.465
0.485
0.49
0.495
0.48
0.475
0.455
0.46
0.475
0.48
0.48
0.485
0.485
0.485
0.49
0.465
0.475
0.48
0.495
0.49
0.475
0.475
0.465
0.465
0.475
0.475
0.46
0.46
0.475
0.46
0.465
0.475
0.485
0.485
0.485
0.485
0.475
0.475
0.46
0.455
0.475
0.475
0.475
0.465
0.45
0.445
0.45
0.45
0.45
0.455
0.465
0.45
0.45
0.445
0.44
0.45
0.45
0.435
0.46
0.455
0.455
0.45
0.445
0.46
0.475
0.475
0.46
0.455
0.46
0.46
0.475
0.475
0.48
0.48
0.48
0.475
0.475
0.455
0.455
0.455
0.475
0.475
0.475
0.455
0.45
0.45
0.455
0.455
0.455
0.45
0.475
0.465
0.475
0.465
0.465
0.455
0.475
0.485
0.475
0.455
0.475
0.475
0.48
0.475
0.455
0.465
0.485
0.485
0.495
0.505
0.525
0.525
0.535
0.53
0.52
0.53
0.56
0.575
0.58
0.57
0.57
0.555
0.56
0.56
0.54
0.535
0.515
0.495
0.475
0.465
0.45
0.445
0.455
0.46
0.465
0.455
0.475
0.475
0.48
0.475
0.465
0.455
0.455
0.465
0.465
0.465
0.485
0.615
0.865
1.27
1.74
2.18
2.415
2.36
2.035
1.59
1.11
0.755
0.58
0.535
0.535
0.54
0.54
0.515
0.495
0.475
0.455
0.445
0.45
0.445
0.45
0.465
0.48
0.48
0.485
0.475
0.475
0.465
0.485
0.49
0.495
0.5
0.5
0.495
0.475
0.475
0.485
0.495
0.485
0.495
0.5
0.5
0.515
0.5
0.525
0.535
0.545
0.545
0.56
0.57
0.58
0.585
0.6
0.62
0.655
0.66
0.675
0.69
0.705
0.73
0.74
0.755
0.775
0.79
0.81
0.815
0.815
0.795
0.785
0.77
0.765
0.755
0.75
0.71
0.695
0.67
0.655
0.615
0.585
0.56
0.535
0.51
0.515
0.5
0.495
0.485
0.5
0.49
0.49
0.485
0.48
0.475
0.475
0.465
0.455
0.45
0.45
0.455
0.455
0.455
0.465
0.455
0.45
0.445
0.44
0.44
0.45
0.445
0.445
0.45
0.44
0.44
0.445
0.45
0.455
0.445
0.44
0.455
0.45
0.445
0.45
0.445
0.45
0.45
0.45
0.455
0.455
0.425
0.43
0.435
0.44
0.45
0.43
0.45
0.45
0.44
0.435
0.425
0.435
0.43
0.425
0.415
0.415
0.43
0.44
0.445
0.44
0.43
0.43
0.415
0.42
0.425
0.425
0.415
0.415
0.425
0.425
0.435
0.43
0.425
0.415
0.415
0.415
0.415
0.425
0.415
0.43
0.42
0.425
0.41
0.42
0.425
0.425
0.415
0.395
0.42
0.43
0.43
0.43
0.425
0.44
0.435
0.425
0.415
0.415
0.415
0.415
0.42
0.42
0.43
0.43
0.43
0.43
0.43
0.43
0.43
0.43
0.435
0.43
0.43
0.43
0.41
0.43
0.43
0.45
0.455
0.485
0.495
0.485
0.49
0.485
0.495
0.51
0.525
0.525
0.51
0.495
0.51
0.515
0.5
0.495
0.465
0.475
0.455
0.45
0.44
0.43
0.43
0.415
0.41
0.415
0.41
0.415
0.415
0.42
0.42
0.425
0.425
0.43
0.425
0.425
0.43
0.515
0.725
1.1
1.575
2.075
2.425
2.49
2.29
1.86
1.37
0.935
0.655
0.56
0.535
0.535
0.525
0.485
0.475
0.455
0.445
0.44
0.43
0.445
0.45
0.45
0.44
0.435
0.43
0.43
0.44
0.45
0.44
0.455
0.455
0.465
0.455
0.46
0.455
0.455
0.465
0.475
0.475
0.475
0.48
0.495
0.495
0.515
0.515
0.515
0.535
0.545
0.555
0.545
0.555
0.56
0.57
0.58
0.6
0.655
0.655
0.675
0.685
0.7
0.725
0.73
0.735
0.745
0.755
0.77
0.785
0.79
0.79
0.775
0.77
0.75
0.725
0.69
0.68
0.655
0.63
0.61
0.58
0.565
0.535
0.525
0.515
0.505
0.5
0.5
0.495
0.495
0.485
0.46
0.455
0.445
0.445
0.45
0.45
0.46
0.465
0.475
0.46
0.465
0.455
0.455
0.44
0.45
0.45
0.45
0.445
0.43
0.43
0.43
0.43
0.435
0.44
0.45
0.44
0.44
0.43
0.43
0.43
0.435
0.44
0.44
0.44
0.45
0.445
0.44
0.44
0.445
0.45
0.45
0.455
0.455
0.45
0.45
0.445
0.445
0.435
0.445
0.445
0.45
0.455
0.45
0.445
0.43
0.405
0.42
0.425
0.44
0.44
0.42
0.43
0.43
0.43
0.435
0.43
0.43
0.435
0.45
0.44
0.43
0.425
0.43
0.43
0.425
0.415
0.425
0.425
0.43
0.425
0.42
0.42
0.425
0.43
0.43
0.425
0.425
0.41
0.43
0.425
0.43
0.425
0.43
0.43
0.44
0.435
0.435
0.435
0.425
0.43
0.435
0.435
0.42
0.445
0.435
0.43
0.43
0.425
0.43
0.425
0.43
0.43
0.43
0.435
0.44
0.445
0.435
0.44
0.44
0.435
0.44
0.43
0.44
0.435
0.44
0.45
0.45
0.455
0.455
0.455
0.475
0.495
0.51
0.505
0.5
0.515
0.515
0.545
0.565
0.56
0.535
0.515
0.51
0.51
0.495
0.495
0.495
0.495
0.485
0.44
0.445
0.435
0.44
0.43
0.43
0.425
0.43
0.45
0.455
0.45
0.455
0.445
0.455
0.45
0.45
0.445
0.46
0.495
0.615
0.9
1.33
1.825
2.26
2.485
2.405
2.08
1.62
1.2
0.84
0.645
0.57
0.54
0.525
0.5
0.48
0.465
0.44
0.46
0.465
0.455
0.45
0.435
0.455
0.465
0.465
0.45
0.445
0.445
0.455
0.46
0.46
0.455
0.475
0.48
0.49
0.48
0.485
0.485
0.495
0.495
0.495
0.495
0.5
0.51
0.525
0.525
0.535
0.54
0.54
0.565
0.575
0.575
0.6
0.6
0.605
0.62
0.64
0.665
0.685
0.7
0.715
0.725
0.75
0.78
0.775
0.785
0.79
0.785
0.815
0.79
0.78
0.765
0.755
0.73
0.7
0.68
0.655
0.64
0.62
0.6
0.585
0.565
0.54
0.535
0.515
0.51
0.505
0.505
0.5
0.5
0.495
0.485
0.475
0.465
0.475
0.48
0.49
0.495
0.495
0.495
0.49
0.495
0.485
0.485
0.475
0.455
0.495
0.49
0.49
0.48
0.45
0.455
0.455
0.475
0.475
0.475
0.48
0.485
0.485
0.475
0.465
0.455
0.465
0.475
0.49
0.485
0.485
0.475
0.475
0.465
0.46
0.46
0.475
0.475
0.485
0.475
0.465
0.455
0.465
0.475
0.475
0.475
0.48
0.485
0.475
0.475
0.475
0.465
0.475
0.455
0.46
0.45
0.45
0.465
0.455
0.45
0.455
0.455
0.455
0.445
0.445
0.45
0.445
0.45
0.45
0.45
0.455
0.465
0.465
0.455
0.465
0.455
0.45
0.445
0.455
0.475
0.485
0.48
0.475
0.455
0.455
0.455
0.455
0.465
0.465
0.465
0.455
0.455
0.45
0.455
0.455
0.46
0.465
0.465
0.435
0.455
0.465
0.485
0.48
0.45
0.465
0.475
0.475
0.475
0.46
0.475
0.475
0.485
0.485
0.48
0.485
0.495
0.495
0.475
0.455
0.455
0.455
0.475
0.485
0.48
0.485
0.48
0.485
0.495
0.5
0.515
0.535
0.54
0.555
0.54
0.54
0.545
0.575
0.585
0.59
0.58
0.555
0.56
0.545
0.555
0.545
0.525
0.525
0.5
0.495
0.475
0.46
0.475
0.48
0.475
0.475
0.475
0.48
0.475
0.48
0.48
0.485
0.485
0.495
0.495
0.495
0.49
0.52
0.645
0.9
1.325
1.815
2.23
2.405
2.325
1.965
1.51
1.06
0.71
0.585
0.555
0.56
0.56
0.535
0.51
0.5
0.49
0.475
0.455
0.48
0.485
0.495
0.495
0.485
0.495
0.485
0.485
0.495
0.495
0.495
0.5
0.5
0.5
0.5
0.51
0.515
0.52
0.52
0.515
0.525
0.535
0.54
0.53
0.535
0.53
0.545
0.56
0.57
0.56
0.575
0.585
0.6
0.615
0.63
0.655
0.675
0.68
0.685
0.695
0.725
0.755
0.755
0.76
0.765
0.785
0.815
0.815
0.81
0.795
0.795
0.785
0.765
0.74
0.725
0.7
0.68
0.655
0.625
0.61
0.6
0.585
0.58
0.56
0.555
0.535
0.525
0.52
0.515
0.515
0.52
0.525
0.515
0.5
0.495
0.495
0.495
0.5
0.495
0.49
0.495
0.495
0.495
0.475
0.49
0.495
0.5
0.485
0.455
0.485
0.485
0.485
0.49
0.485
0.495
0.485
0.485
0.48
0.475
0.465
0.475
0.48
0.475
0.465
0.475
0.485
0.5
0.495
0.495
0.485
0.475
0.465
0.48
0.485
0.485
0.475
0.49
0.475
0.475
0.465
0.465
0.475
0.475
0.485
0.485
0.485
0.485
0.475
0.465
0.465
0.45
0.465
0.465
0.475
0.46
0.45
0.475
0.475
0.475
0.45
0.435
0.45
0.45
0.455
0.455
0.46
0.46
0.45
0.455
0.455
0.475
0.475
0.48
0.475
0.475
0.475
0.465
0.455
0.455
0.465
0.465
0.465
0.45
0.45
0.45
0.46
0.46
0.465
0.455
0.45
0.455
0.455
0.445
0.465
0.455
0.46
0.455
0.445
0.45
0.455
0.475
0.465
0.46
0.46
0.475
0.485
0.495
0.485
0.48
0.465
0.475
0.455
0.46
0.455
0.465
0.475
0.465
0.475
0.46
0.465
0.48
0.475
0.48
0.485
0.475
0.485
0.485
0.495
0.5
0.525
0.53
0.53
0.53
0.51
0.5
0.53
0.56
0.585
0.6
0.605
0.57
0.555
0.565
0.54
0.54
0.53
0.515
0.495
0.465
0.455
0.455
0.455
0.465
0.465
0.475
0.465
0.465
0.475
0.475
0.465
0.475
0.475
0.495
0.485
0.485
0.475
0.505
0.645
0.925
1.345
1.815
2.19
2.395
2.28
1.94
1.5
1.03
0.715
0.575
0.53
0.53
0.515
0.525
0.5
0.495
0.495
0.475
0.495
0.48
0.485
0.48
0.485
0.48
0.48
0.485
0.485
0.485
0.485
0.495
0.49
0.485
0.49
0.495
0.495
0.495
0.5
0.5
0.49
0.495
0.51
0.525
0.525
0.525
0.53
0.54
0.54
0.56
0.56
0.57
0.585
0.6
0.615
0.645
0.665
0.66
0.68
0.685
0.68
0.715
0.705
0.73
0.735
0.76
0.77
0.775
0.78
0.775
0.785
0.785
0.765
0.76
0.73
0.705
0.68
0.67
0.66
0.645
0.615
0.6
0.58
0.57
0.555
0.53
0.535
0.515
0.495
0.515
0.505
0.515
0.51
0.495
0.495
0.485
0.485
0.49
0.485
0.495
0.49
0.5
0.49
0.475
0.485
0.49
0.495
0.495
0.465
0.465
0.455
0.455
0.455
0.46
0.46
0.465
0.465
0.465
0.48
0.475
0.48
0.475
0.475
0.485
0.465
0.46
0.46
0.475
0.485
0.49
0.485
0.485
0.465
0.48
0.475
0.485
0.495
0.495
0.49
0.485
0.475
0.475
0.475
0.465
0.455
0.435
0.45
0.445
0.445
0.465
0.445
0.455
0.45
0.45
0.45
0.455
0.465
0.48
0.465
0.46
0.45
0.45
0.44
0.455
0.45
0.45
0.445
0.45
0.45
0.45
0.455
0.46
0.465
0.465
0.465
0.455
0.45
0.445
0.45
0.45
0.45
0.45
0.445
0.435
0.435
0.445
0.435
0.43
0.45
0.455
0.455
0.455
0.44
0.455
0.465
0.465
0.465
0.45
0.455
0.46
0.475
0.475
0.45
0.445
0.44
0.455
0.455
0.475
0.46
0.465
0.465
0.455
0.445
0.45
0.45
0.465
0.475
0.465
0.46
0.45
0.46
0.475
0.485
0.485
0.485
0.475
0.465
0.49
0.5
0.515
0.53
0.535
0.535
0.525
0.5
0.535
0.555
0.57
0.57
0.545
0.555
0.545
0.545
0.535
0.525
0.525
0.51
0.495
0.485
0.48
0.475
0.465
0.465
0.465
0.455
0.45
0.445
0.45
0.465
0.475
0.465
0.465
0.485
0.485
0.495
0.495
0.555
0.73
1.08
1.53
1.985
2.28
2.355
2.11
1.7
1.24
0.845
0.615
0.555
0.54
0.555
0.525
0.525
0.5
0.485
0.475
0.465
0.475
0.48
0.495
0.485
0.48
0.48
0.48
0.475
0.465
0.48
0.49
0.495
0.5
0.495
0.495
0.495
0.51
0.515
0.515
0.5
0.5
0.495
0.51
0.53
0.535
0.535
0.54
0.54
0.545
0.555
0.565
0.595
0.585
0.6
0.615
0.645
0.68
0.68
0.69
0.685
0.695
0.715
0.735
0.75
0.77
0.785
0.795
0.805
0.795
0.805
0.795
0.785
0.77
0.755
0.73
0.705
0.685
0.66
0.65
0.61
0.6
0.575
0.565
0.535
0.53
0.525
0.52
0.51
0.5
0.495
0.495
0.51
0.505
0.5
0.495
0.485
0.485
0.48
0.465
0.485
0.485
0.485
0.48
0.455
0.48
0.465
0.475
0.465
0.475
0.475
0.475
0.485
0.485
0.485
0.49
0.475
0.475
0.45
0.45
0.465
0.485
0.495
0.49
0.475
0.455
0.455
0.465
0.475
0.475
0.465
0.465
0.475
0.475
0.475
0.49
0.495
0.495
0.485
0.48
0.475
0.45
0.475
0.465
0.45
0.45
0.435
0.465
0.465
0.465
0.46
0.45
0.445
0.45
0.45
0.455
0.455
0.455
0.445
0.44
0.435
0.435
0.44
0.445
0.44
0.445
0.445
0.45
0.45
0.45
0.455
0.465
0.45
0.44
0.445
0.455
0.455
0.45
0.455
0.46
0.45
0.455
0.445
0.45
0.455
0.455
0.45
0.44
0.425
0.45
0.455
0.465
0.46
0.455
0.46
0.455
0.455
0.455
0.45
0.46
0.46
0.46
0.455
0.455
0.455
0.475
0.455
0.455
0.455
0.465
0.475
0.465
0.455
0.465
0.485
0.51
0.525
0.53
0.535
0.525
0.535
0.545
0.56
0.56
0.555
0.545
0.54
0.545
0.54
0.535
0.515
0.515
0.485
0.455
0.45
0.435
0.45
0.465
0.475
0.475
0.455
0.45
0.445
0.45
0.455
0.465
0.465
0.475
0.465
0.465
0.465
0.51
0.655
0.96
1.39
1.87
2.27
2.45
2.315
1.95
1.465
1.0
0.67
0.565
0.535
0.545
0.53
0.52
0.51
0.495
0.485
0.48
0.455
0.485
0.495
0.495
0.48
0.44
0.45
0.45
0.455
0.46
0.465
0.475
0.475
0.485
0.495
0.495
0.495
0.485
0.48
0.495
0.505
0.515
0.53
0.53
0.535
0.535
0.535
0.54
0.56
0.565
0.58
0.595
0.575
0.605
0.615
0.615
0.645
0.665
0.68
0.695
0.705
0.735
0.765
0.785
0.805
0.815
0.815
0.83
0.815
0.83
0.83
0.835
0.83
0.795
0.78
0.76
0.725
0.705
0.67
0.645
0.6
0.585
0.57
0.555
0.555
0.535
0.515
0.5
0.495
0.5
0.51
0.505
0.495
0.485
0.475
0.465
0.46
0.475
0.465
0.475
0.475
0.48
0.465
0.475
0.465
0.475
0.465
0.455
0.465
0.445
0.455
0.445
0.44
0.435
0.43
0.445
0.45
0.45
0.435
0.44
0.45
0.455
0.475
0.465
0.465
0.455
0.455
0.465
0.475
0.475
0.475
0.49
0.49
0.48
0.455
0.45
0.435
0.435
0.435
0.445
0.455
0.475
0.48
0.49
0.48
0.475
0.455
0.45
0.45
0.45
0.45
0.435
0.455
0.45
0.45
0.455
0.45
0.455
0.45
0.44
0.43
0.435
0.435
0.445
0.45
0.45
0.44
0.445
0.45
0.45
0.445
0.455
0.45
0.45
0.455
0.455
0.45
0.44
0.435
0.45
0.445
0.45
0.45
0.445
0.44
0.435
0.435
0.44
0.45
0.45
0.435
0.45
0.45
0.45
0.45
0.45
0.455
0.46
0.44
0.45
0.455
0.475
0.48
0.495
0.525
0.515
0.5
0.495
0.495
0.515
0.535
0.555
0.545
0.53
0.53
0.525
0.525
0.52
0.505
0.495
0.495
0.48
0.475
0.465
0.45
0.45
0.445
0.445
0.45
0.45
0.45
0.45
0.455
0.46
0.455
0.455
0.455
0.455
0.455
0.45
0.45
0.6
0.875
1.315
1.815
2.295
2.54
2.5
2.17
1.705
1.235
0.86
0.645
0.555
0.53
0.525
0.535
0.525
0.515
0.5
0.495
0.475
0.465
0.455
0.455
0.45
0.455
0.465
0.465
0.475
0.48
0.475
0.465
0.465
0.465
0.475
0.485
0.495
0.49
0.5
0.5
0.5
0.5
0.505
0.51
0.525
0.535
0.525
0.535
0.535
0.54
0.555
0.56
0.58
0.6
0.61
0.62
0.645
0.655
0.665
0.68
0.705
0.725
0.74
0.76
0.77
0.78
0.805
0.825
0.835
0.84
0.84
0.83
0.825
0.805
0.77
0.735
0.69
0.67
0.645
0.62
0.605
0.58
0.58
0.565
0.54
0.525
0.505
0.5
0.485
0.51
0.505
0.5
0.495
0.455
0.49
0.495
0.495
0.495
0.495
0.485
0.495
0.49
0.495
0.495
0.495
0.49
0.48
0.455
0.455
0.45
0.445
0.45
0.455
0.475
0.48
0.475
0.485
0.475
0.48
0.475
0.475
0.46
0.465
0.455
0.46
0.465
0.465
0.475
0.475
0.475
0.45
0.485
0.485
0.49
0.465
0.445
0.46
0.465
0.475
0.485
0.48
0.495
0.49
0.485
0.475
0.455
0.455
0.455
0.465
0.455
0.465
0.46
0.455
0.455
0.45
0.455
0.455
0.455
0.455
0.45
0.45
0.45
0.43
0.455
0.455
0.455
0.45
0.45
0.45
0.445
0.45
0.455
0.46
0.455
0.465
0.475
0.475
0.44
0.455
0.455
0.46
0.46
0.455
0.465
0.485
0.485
0.48
0.45
0.45
0.44
0.445
0.45
0.45
0.455
0.46
0.465
0.465
0.455
0.455
0.46
0.475
0.465
0.475
0.465
0.475
0.475
0.48
0.485
0.485
0.475
0.465
0.46
0.475
0.475
0.485
0.48
0.485
0.495
0.485
0.465
0.495
0.51
0.525
0.525
0.525
0.555
0.555
0.56
0.57
0.565
0.565
0.56
0.555
0.56
0.555
0.54
0.535
0.535
0.515
0.5
0.495
0.485
0.475
0.455
0.46
0.465
0.475
0.48
0.455
0.455
0.45
0.465
0.475
0.465
0.485
0.48
0.495
0.595
0.83
1.21
1.685
2.165
2.485
2.56
2.34
1.94
1.485
1.035
0.73
0.6
0.56
0.56
0.56
0.535
0.51
0.49
0.475
0.465
0.475
0.475
0.475
0.475
0.475
0.475
0.485
0.49
0.495
0.49
0.5
0.505
0.49
0.495
0.5
0.48
0.495
0.495
0.515
0.515
0.525
0.53
0.535
0.53
0.525
0.525
0.53
0.535
0.545
0.57
0.6
0.59
0.6
0.61
0.62
0.655
0.66
0.68
0.685
0.705
0.725
0.74
0.76
0.765
0.775
0.795
0.815
0.825
0.84
0.83
0.82
0.815
0.805
0.775
0.76
0.735
0.715
0.68
0.655
0.625
0.6
0.58
0.56
0.56
0.555
0.54
0.535
0.51
0.5
0.5
0.505
0.515
0.5
0.525
0.515
0.515
0.515
0.495
0.51
0.5
0.49
0.495
0.495
0.495
0.495
0.49
0.485
0.49
0.495
0.495
0.495
0.485
0.48
0.475
0.48
0.49
0.495
0.495
0.485
0.485
0.49
0.49
0.495
0.5
0.495
0.49
0.485
0.485
0.485
0.49
0.495
0.49
0.495
0.495
0.49
0.5
0.495
0.495
0.485
0.455
0.485
0.485
0.485
0.495
0.495
0.495
0.485
0.485
0.485
0.475
0.475
0.465
0.475
0.465
0.475
0.48
0.485
0.485
0.485
0.485
0.475
0.475
0.475
0.48
0.48
0.485
0.475
0.49
0.48
0.48
0.475
0.465
0.485
0.475
0.485
0.475
0.49
0.485
0.485
0.485
0.485
0.465
0.485
0.485
0.49
0.485
0.46
0.475
0.475
0.475
0.485
0.485
0.495
0.495
0.495
0.485
0.485
0.49
0.495
0.495
0.515
0.505
0.5
0.5
0.495
0.49
0.495
0.485
0.485
0.495
0.495
0.5
0.5
0.51
0.505
0.5
0.51
0.495
0.495
0.49
0.5
0.515
0.525
0.515
0.555
0.555
0.56
0.56
0.59
0.585
0.605
0.61
0.6
0.595
0.585
0.575
0.565
0.56
0.57
0.56
0.555
0.535
0.505
0.495
0.495
0.49
0.5
0.49
0.5
0.495
0.495
0.495
0.49
0.505
0.505
0.49
0.505
0.515
0.52
0.555
0.69
0.985
1.43
1.915
2.325
2.475
2.325
1.915
1.445
1.01
0.735
0.605
0.595
0.58
0.57
0.53
0.525
0.51
0.515
0.51
0.51
0.5
0.5
0.5
0.51
0.51
0.52
0.52
0.525
0.525
0.525
0.515
0.51
0.52
0.525
0.53
0.53
0.535
0.555
0.56
0.545
0.525
0.535
0.535
0.535
0.555
0.56
0.57
0.58
0.6
0.6
0.62
0.655
0.645
0.665
0.68
0.695
0.71
0.71
0.73
0.735
0.75
0.77
0.78
0.805
0.815
0.825
0.835
0.83
0.83
0.825
0.82
0.805
0.79
0.77
0.745
0.73
0.695
0.685
0.67
0.655
0.64
0.61
0.6
0.58
0.565
0.57
0.57
0.555
0.54
0.535
0.525
0.53
0.535
0.52
0.535
0.53
0.525
0.515
0.5
0.525
0.52
0.525
0.515
0.515
0.515
0.515
0.51
0.505
0.5
0.505
0.505
0.515
0.515
0.525
0.52
0.525
0.525
0.515
0.515
0.51
0.495
0.495
0.49
0.51
0.5
0.485
0.5
0.51
0.515
0.515
0.515
0.52
0.515
0.515
0.505
0.515
0.51
0.505
0.51
0.5
0.49
0.515
0.515
0.515
0.505
0.485
0.485
0.48
0.485
0.485
0.495
0.495
0.495
0.49
0.485
0.485
0.495
0.495
0.495
0.5
0.49
0.485
0.48
0.49
0.485
0.485
0.485
0.49
0.485
0.475
0.48
0.48
0.485
0.495
0.49
0.495
0.485
0.495
0.485
0.495
0.495
0.49
0.465
0.49
0.485
0.5
0.495
0.49
0.5
0.49
0.495
0.495
0.5
0.5
0.5
0.495
0.485
0.48
0.475
0.48
0.49
0.495
0.5
0.49
0.49
0.495
0.49
0.495
0.495
0.495
0.5
0.51
0.51
0.495
0.485
0.49
0.5
0.505
0.5
0.5
0.495
0.5
0.51
0.5
0.495
0.515
0.525
0.525
0.525
0.52
0.555
0.57
0.56
0.56
0.54
0.565
0.585
0.61
0.615
0.62
0.605
0.6
0.575
0.58
0.57
0.555
0.535
0.525
0.515
0.515
0.515
0.51
0.5
0.495
0.49
0.485
0.475
0.485
0.495
0.505
0.52
0.53
0.52
0.515
0.51
0.51
0.56
0.735
1.03
1.475
1.94
2.325
2.44
2.265
1.875
1.43
1.01
0.73
0.605
0.575
0.585
0.6
0.58
0.56
0.535
0.515
0.49
0.495
0.495
0.515
0.515
0.525
0.525
0.525
0.515
0.51
0.5
0.515
0.52
0.52
0.525
0.525
0.52
0.525
0.535
0.535
0.54
0.555
0.54
0.535
0.535
0.555
0.56
0.545
0.585
0.6
0.595
0.605
0.625
0.625
0.645
0.65
0.655
0.67
0.685
0.71
0.735
0.745
0.76
0.76
0.77
0.775
0.79
0.805
0.83
0.84
0.84
0.835
0.82
0.805
0.775
0.755
0.715
0.7
0.7
0.68
0.655
0.64
0.615
0.6
0.6
0.58
0.56
0.565
0.555
0.54
0.53
0.535
0.53
0.53
0.51
0.535
0.53
0.53
0.525
0.505
0.51
0.51
0.515
0.515
0.5
0.505
0.505
0.515
0.51
0.51
0.5
0.5
0.51
0.515
0.51
0.505
0.495
0.49
0.495
0.495
0.495
0.495
0.515
0.51
0.5
0.49
0.495
0.49
0.495
0.505
0.51
0.515
0.51
0.515
0.515
0.515
0.495
0.515
0.505
0.505
0.51
0.485
0.495
0.5
0.49
0.495
0.48
0.495
0.495
0.49
0.485
0.48
0.48
0.485
0.495
0.48
0.49
0.49
0.49
0.495
0.495
0.49
0.495
0.5
0.5
0.495
0.495
0.485
0.465
0.465
0.48
0.495
0.49
0.49
0.475
0.465
0.475
0.46
0.45
0.475
0.485
0.495
0.49
0.46
0.475
0.475
0.485
0.485
0.495
0.495
0.49
0.495
0.495
0.49
0.49
0.485
0.485
0.49
0.495
0.495
0.495
0.485
0.475
0.475
0.485
0.485
0.485
0.495
0.495
0.5
0.48
0.495
0.485
0.485
0.485
0.495
0.495
0.495
0.51
0.5
0.5
0.51
0.515
0.54
0.56
0.535
0.555
0.56
0.56
0.58
0.605
0.6
0.585
0.58
0.575
0.56
0.555
0.555
0.535
0.52
0.49
0.495
0.485
0.485
0.48
0.485
0.465
0.475
0.48
0.475
0.465
0.48
0.49
0.495
0.495
0.505
0.5
0.5
0.525
0.645
0.92
1.36
1.85
2.27
2.445
2.29
1.88
1.41
0.965
0.69
0.585
0.565
0.56
0.565
0.535
0.52
0.5
0.495
0.49
0.495
0.485
0.495
0.485
0.485
0.48
0.485
0.495
0.5
0.5
0.5
0.51
0.515
0.515
0.515
0.5
0.505
0.51
0.525
0.53
0.525
0.52
0.525
0.535
0.56
0.56
0.56
0.555
0.565
0.57
0.6
0.585
0.6
0.615
0.63
0.66
0.66
0.68
0.69
0.7
0.73
0.73
0.745
0.765
0.78
0.78
0.785
0.795
0.795
0.81
0.805
0.795
0.79
0.765
0.755
0.71
0.675
0.655
0.645
0.64
0.61
0.605
0.58
0.565
0.545
0.54
0.525
0.505
0.5
0.5
0.51
0.51
0.515
0.515
0.5
0.51
0.5
0.485
0.5
0.495
0.485
0.485
0.49
0.495
0.49
0.485
0.475
0.475
0.48
0.475
0.495
0.495
0.495
0.49
0.485
0.485
0.485
0.49
0.495
0.495
0.495
0.495
0.49
0.475
0.475
0.475
0.495
0.5
0.495
0.495
0.495
0.485
0.495
0.48
0.485
0.485
0.485
0.495
0.495
0.475
0.495
0.485
0.495
0.485
0.475
0.485
0.485
0.49
0.495
0.495
0.5
0.49
0.49
0.475
0.465
0.45
0.45
0.455
0.455
0.46
0.45
0.46
0.475
0.485
0.485
0.475
0.475
0.475
0.475
0.49
0.49
0.46
0.48
0.475
0.48
0.48
0.485
0.485
0.49
0.48
0.465
0.475
0.475
0.48
0.49
0.495
0.465
0.465
0.455
0.455
0.465
0.475
0.485
0.485
0.49
0.485
0.475
0.49
0.49
0.49
0.485
0.495
0.495
0.485
0.485
0.495
0.495
0.495
0.495
0.495
0.48
0.49
0.485
0.49
0.495
0.495
0.5
0.49
0.495
0.495
0.5
0.525
0.53
0.535
0.545
0.555
0.565
0.57
0.605
0.6
0.595
0.58
0.58
0.605
0.58
0.56
0.56
0.535
0.515
0.51
0.5
0.495
0.475
0.465
0.455
0.455
0.465
0.48
0.485
0.495
0.5
0.5
0.51
0.51
0.51
0.505
0.495
0.495
0.56
0.735
1.055
1.5
1.955
2.33
2.415
2.175
1.765
1.305
0.905
0.685
0.62
0.59
0.585
0.56
0.54
0.51
0.515
0.5
0.505
0.495
0.495
0.5
0.495
0.5
0.5
0.5
0.505
0.515
0.515
0.515
0.51
0.5
0.5
0.51
0.515
0.525
0.535
0.535
0.535
0.53
0.535
0.54
0.54
0.57
0.57
0.57
0.58
0.585
0.59
0.605
0.61
0.625
0.65
0.645
0.655
0.655
0.685
0.725
0.715
0.735
0.75
0.76
0.775
0.77
0.78
0.79
0.81
0.815
0.825
0.825
0.81
0.805
0.79
0.77
0.75
0.725
0.69
0.67
0.655
0.645
0.61
0.585
0.57
0.56
0.56
0.555
0.545
0.545
0.525
0.515
0.51
0.515
0.515
0.51
0.51
0.515
0.515
0.515
0.525
0.515
0.515
0.51
0.505
0.5
0.485
0.5
0.5
0.515
0.5
0.505
0.515
0.505
0.5
0.495
0.5
0.5
0.495
0.485
0.49
0.495
0.495
0.5
0.505
0.51
0.515
0.515
0.515
0.51
0.505
0.51
0.5
0.51
0.515
0.515
0.51
0.495
0.495
0.5
0.5
0.51
0.5
0.485
0.5
0.5
0.5
0.495
0.48
0.485
0.485
0.485
0.485
0.485
0.495
0.485
0.49
0.485
0.49
0.49
0.5
0.5
0.49
0.49
0.48
0.48
0.48
0.485
0.485
0.475
0.475
0.48
0.48
0.485
0.495
0.495
0.51
0.5
0.5
0.49
0.495
0.49
0.49
0.495
0.495
0.485
0.495
0.485
0.49
0.49
0.475
0.49
0.495
0.495
0.495
0.475
0.5
0.5
0.5
0.5
0.495
0.495
0.495
0.49
0.5
0.5
0.515
0.51
0.5
0.495
0.495
0.495
0.495
0.5
0.51
0.51
0.5
0.51
0.525
0.555
0.575
0.565
0.555
0.54
0.545
0.565
0.58
0.6
0.61
0.6
0.585
0.585
0.555
0.565
0.56
0.555
0.525
0.5
0.515
0.51
0.51
0.5
0.5
0.51
0.51
0.505
0.505
0.5
0.5
0.495
0.495
0.495
0.515
0.515
0.515
0.525
0.61
0.855
1.275
1.765
2.2
2.46
2.43
2.115
1.65
1.21
0.855
0.655
0.585
0.58
0.58
0.57
0.555
0.535
0.525
0.51
0.515
0.5
0.495
0.485
0.495
0.5
0.51
0.5
0.495
0.49
0.495
0.495
0.51
0.515
0.515
0.51
0.51
0.52
0.54
0.535
0.53
0.535
0.54
0.545
0.545
0.54
0.545
0.565
0.58
0.595
0.6
0.6
0.6
0.605
0.625
0.64
0.655
0.675
0.675
0.7
0.715
0.74
0.76
0.775
0.775
0.79
0.775
0.785
0.795
0.81
0.825
0.795
0.78
0.76
0.735
0.715
0.705
0.68
0.665
0.655
0.64
0.615
0.585
0.555
0.53
0.52
0.515
0.51
0.52
0.515
0.515
0.505
0.505
0.51
0.515
0.505
0.5
0.5
0.5
0.515
0.52
0.5
0.51
0.505
0.5
0.5
0.495
0.475
0.49
0.49
0.495
0.49
0.475
0.5
0.495
0.49
0.48
0.465
0.475
0.485
0.49
0.485
0.48
0.485
0.485
0.495
0.495
0.495
0.495
0.495
0.495
0.495
0.5
0.5
0.495
0.495
0.485
0.495
0.485
0.465
0.495
0.495
0.495
0.48
0.49
0.485
0.49
0.495
0.495
0.5
0.5
0.5
0.49
0.485
0.45
0.465
0.465
0.455
0.45
0.445
0.45
0.455
0.465
0.46
0.465
0.465
0.475
0.465
0.475
0.465
0.475
0.475
0.465
0.475
0.48
0.475
0.48
0.465
0.48
0.475
0.46
0.46
0.475
0.475
0.475
0.475
0.465
0.475
0.465
0.465
0.455
0.45
0.45
0.455
0.475
0.48
0.455
0.48
0.485
0.49
0.49
0.475
0.495
0.49
0.505
0.5
0.48
0.475
0.455
0.465
0.475
0.475
0.485
0.48
0.485
0.475
0.49
0.485
0.485
0.49
0.495
0.495
0.515
0.53
0.535
0.54
0.545
0.555
0.56
0.56
0.58
0.59
0.59
0.585
0.58
0.58
0.565
0.54
0.515
0.53
0.525
0.515
0.495
0.465
0.465
0.475
0.475
0.465
0.46
0.475
0.48
0.485
0.475
0.475
0.475
0.48
0.495
0.49
0.505
0.515
0.58
0.77
1.13
1.605
2.07
2.36
2.345
2.03
1.575
1.115
0.775
0.62
0.57
0.555
0.56
0.54
0.53
0.51
0.515
0.51
0.5
0.485
0.475
0.475
0.48
0.465
0.495
0.495
0.495
0.485
0.455
0.485
0.495
0.5
0.495
0.485
0.495
0.5
0.515
0.515
0.525
0.525
0.525
0.525
0.515
0.51
0.515
0.535
0.545
0.555
0.57
0.57
0.585
0.595
0.62
0.63
0.655
0.67
0.69
0.71
0.725
0.735
0.735
0.745
0.755
0.77
0.79
0.815
0.805
0.79
0.79
0.785
0.805
0.765
0.755
0.73
0.71
0.68
0.655
0.625
0.61
0.595
0.58
0.565
0.54
0.53
0.52
0.51
0.515
0.51
0.515
0.52
0.515
0.5
0.495
0.48
0.485
0.495
0.495
0.465
0.49
0.485
0.49
0.485
0.495
0.485
0.475
0.485
0.49
0.485
0.49
0.48
0.465
0.465
0.45
0.48
0.46
0.465
0.455
0.45
0.455
0.465
0.475
0.475
0.46
0.475
0.475
0.48
0.485
0.495
0.495
0.49
0.49
0.465
0.475
0.475
0.48
0.485
0.48
0.49
0.49
0.485
0.485
0.475
0.46
0.45
0.445
0.445
0.455
0.455
0.45
0.445
0.455
0.455
0.455
0.455
0.44
0.455
0.465
0.465
0.465
0.44
0.45
0.435
0.43
0.43
0.43
0.45
0.445
0.435
0.435
0.44
0.455
0.455
0.475
0.465
0.465
0.455
0.455
0.465
0.48
0.485
0.485
0.475
0.465
0.455
0.455
0.455
0.45
0.445
0.435
0.45
0.45
0.46
0.465
0.455
0.445
0.435
0.415
0.44
0.45
0.465
0.475
0.45
0.455
0.455
0.475
0.455
0.435
0.44
0.445
0.45
0.45
0.455
0.48
0.505
0.52
0.53
0.525
0.515
0.525
0.525
0.54
0.555
0.56
0.565
0.555
0.535
0.51
0.505
0.495
0.515
0.495
0.48
0.455
0.45
0.45
0.44
0.45
0.455
0.48
0.48
0.475
0.465
0.455
0.435
0.46
0.46
0.475
0.475
0.475
0.465
0.48
0.59
0.84
1.255
1.735
2.175
2.45
2.41
2.12
1.645
1.165
0.78
0.585
0.54
0.56
0.56
0.525
0.5
0.475
0.455
0.465
0.46
0.465
0.465
0.465
0.465
0.45
0.45
0.45
0.46
0.485
0.495
0.495
0.495
0.48
0.445
0.455
0.455
0.455
0.455
0.44
0.475
0.485
0.5
0.51
0.5
0.515
0.52
0.54
0.54
0.54
0.54
0.555
0.57
0.58
0.59
0.61
0.62
0.63
0.655
0.665
0.67
0.685
0.695
0.71
0.715
0.735
0.75
0.765
0.775
0.77
0.78
0.775
0.755
0.74
0.705
0.705
0.7
0.655
0.625
0.6
0.585
0.54
0.54
0.52
0.5
0.5
0.485
0.495
0.48
0.475
0.475
0.46
0.46
0.475
0.475
0.46
0.465
0.465
0.475
0.475
0.46
0.46
0.465
0.465
0.465
0.455
0.45
0.44
0.43
0.45
0.445
0.45
0.445
0.435
0.445
0.455
0.455
0.44
0.445
0.44
0.435
0.435
0.435
0.425
0.45
0.465
0.465
0.445
0.425
0.44
0.45
0.45
0.45
0.43
0.44
0.445
0.455
0.455
0.45
0.45
0.45
0.45
0.45
0.45
0.45
0.45
0.445
0.445
0.45
0.455
0.45
0.43
0.425
0.435
0.43
0.44
0.45
0.45
0.44
0.43
0.43
0.43
0.435
0.44
0.435
0.42
0.43
0.43
0.43
0.43
0.425
0.45
0.445
0.44
0.435
0.43
0.435
0.43
0.43
0.43
0.435
0.44
0.435
0.43
0.425
0.43
0.42
0.425
0.445
0.45
0.455
0.455
0.45
0.45
0.44
0.445
0.435
0.44
0.45
0.45
0.455
0.45
0.445
0.445
0.45
0.45
0.44
0.43
0.435
0.45
0.455
0.475
0.465
0.485
0.495
0.51
0.51
0.51
0.515
0.52
0.525
0.535
0.555
0.555
0.535
0.535
0.52
0.51
0.51
0.515
0.49
0.48
0.475
0.46
0.455
0.45
0.45
0.45
0.435
0.435
0.45
0.455
0.45
0.445
0.455
0.455
0.455
0.475
0.455
0.46
0.525
0.71
1.07
1.54
2.045
2.395
2.485
2.26
1.83
1.35
0.925
0.67
0.575
0.56
0.535
0.535
0.51
0.495
0.49
0.475
0.465
0.46
0.46
0.46
0.465
0.45
0.45
0.45
0.445
0.465
0.475
0.475
0.475
0.465
0.48
0.475
0.48
0.495
0.495
0.5
0.5
0.5
0.49
0.495
0.51
0.51
0.51
0.53
0.53
0.555
0.56
0.56
0.575
0.585
0.585
0.6
0.615
0.64
0.66
0.685
0.7
0.715
0.715
0.73
0.73
0.745
0.755
0.77
0.78
0.785
0.805
0.79
0.77
0.74
0.715
0.705
0.665
0.655
0.63
0.62
0.6
0.575
0.57
0.545
0.535
0.515
0.505
0.51
0.51
0.51
0.505
0.515
0.495
0.46
0.46
0.455
0.46
0.465
0.48
0.495
0.5
0.495
0.475
0.455
0.45
0.455
0.455
0.475
0.485
0.49
0.48
0.46
0.455
0.445
0.44
0.44
0.45
0.45
0.45
0.45
0.455
0.455
0.445
0.45
0.455
0.455
0.455
0.45
0.455
0.455
0.455
0.46
0.465
0.465
0.465
0.43
0.435
0.435
0.45
0.455
0.44
0.465
0.455
0.46
0.445
0.45
0.45
0.455
0.475
0.455
0.45
0.435
0.43
0.44
0.435
0.44
0.44
0.44
0.435
0.44
0.45
0.44
0.45
0.45
0.45
0.445
0.445
0.45
0.445
0.435
0.435
0.43
0.445
0.45
0.445
0.45
0.45
0.44
0.455
0.46
0.46
0.455
0.43
0.43
0.425
0.43
0.435
0.43
0.44
0.44
0.45
0.455
0.45
0.45
0.445
0.45
0.44
0.455
0.45
0.45
0.455
0.45
0.45
0.45
0.455
0.455
0.465
0.48
0.465
0.45
0.46
0.465
0.475
0.465
0.48
0.485
0.495
0.505
0.505
0.515
0.515
0.51
0.515
0.515
0.515
0.555
0.56
0.56
0.555
0.535
0.54
0.535
0.515
0.5
0.495
0.495
0.49
0.49
0.485
0.48
0.45
0.44
0.435
0.44
0.445
0.445
0.45
0.465
0.465
0.475
0.465
0.475
0.465
0.46
0.5
0.655
0.95
1.4
1.88
2.305
2.435
2.215
1.815
1.335
0.9
0.655
0.535
0.54
0.555
0.555
0.525
0.485
0.475
0.45
0.455
0.455
0.46
0.475
0.485
0.49
0.48
0.465
0.46
0.465
0.465
0.465
0.48
0.475
0.48
0.49
0.5
0.495
0.495
0.495
0.5
0.495
0.5
0.505
0.51
0.515
0.52
0.535
0.54
0.56
0.575
0.575
0.575
0.58
0.61
0.6
0.62
0.63
0.64
0.67
0.665
0.69
0.71
0.735
0.76
0.75
0.76
0.77
0.775
0.775
0.77
0.765
0.765
0.755
0.735
0.725
0.695
0.685
0.655
0.615
0.59
0.57
0.555
0.54
0.535
0.52
0.505
0.515
0.515
0.5
0.49
0.485
0.485
0.485
0.495
0.495
0.5
0.495
0.495
0.495
0.475
0.45
0.465
0.48
0.49
0.48
0.455
0.465
0.465
0.46
0.465
0.465
0.475
0.475
0.465
0.455
0.445
0.45
0.45
0.45
0.445
0.45
0.45
0.45
0.475
0.475
0.475
0.475
0.465
0.46
0.455
0.465
0.455
0.455
0.455
0.45
0.45
0.455
0.475
0.48
0.475
0.465
0.45
0.43
0.455
0.46
0.475
0.455
0.435
0.45
0.45
0.455
0.455
0.455
0.46
0.455
0.445
0.445
0.435
0.435
0.435
0.445
0.44
0.445
0.44
0.44
0.45
0.445
0.435
0.43
0.44
0.445
0.45
0.46
0.455
0.44
0.45
0.445
0.445
0.435
0.45
0.45
0.46
0.46
0.465
0.46
0.45
0.43
0.435
0.44
0.43
0.45
0.445
0.45
0.455
0.455
0.46
0.455
0.45
0.44
0.435
0.45
0.455
0.46
0.455
0.455
0.445
0.46
0.465
0.475
0.475
0.46
0.455
0.455
0.455
0.465
0.485
0.495
0.515
0.515
0.525
0.515
0.53
0.555
0.575
0.58
0.565
0.545
0.54
0.54
0.555
0.535
0.51
0.515
0.495
0.48
0.46
0.44
0.45
0.44
0.45
0.45
0.445
0.45
0.455
0.455
0.465
0.475
0.465
0.455
0.46
0.46
0.485
0.52
0.67
0.98
1.435
1.925
2.315
2.43
2.225
1.815
1.32
0.905
0.65
0.565
0.535
0.54
0.535
0.52
0.5
0.475
0.46
0.46
0.44
0.465
0.455
0.455
0.46
0.445
0.475
0.48
0.475
0.465
0.475
0.485
0.475
0.485
0.495
0.495
0.495
0.495
0.495
0.495
0.5
0.5
0.51
0.525
0.53
0.535
0.535
0.535
0.54
0.555
0.57
0.575
0.57
0.595
0.61
0.615
0.64
0.655
0.67
0.69
0.705
0.73
0.74
0.735
0.74
0.745
0.765
0.79
0.78
0.775
0.77
0.77
0.755
0.715
0.685
0.67
0.66
0.655
0.625
0.6
0.57
0.555
0.535
0.515
0.515
0.51
0.51
0.505
0.5
0.495
0.495
0.495
0.49
0.49
0.485
0.485
0.49
0.495
0.48
0.475
0.465
0.46
0.455
0.45
0.45
0.455
0.455
0.475
0.48
0.485
0.495
0.48
0.465
0.445
0.43
0.45
0.445
0.44
0.45
0.45
0.445
0.45
0.44
0.445
0.445
0.455
0.46
0.475
0.475
0.475
0.455
0.475
0.475
0.485
0.495
0.485
0.475
0.45
0.44
0.44
0.435
0.445
0.45
0.45
0.455
0.455
0.45
0.45
0.45
0.445
0.44
0.43
0.45
0.445
0.445
0.445
0.425
0.44
0.44
0.44
0.44
0.445
0.445
0.455
0.445
0.44
0.44
0.43
0.425
0.43
0.43
0.45
0.455
0.475
0.465
0.455
0.45
0.445
0.45
0.44
0.435
0.44
0.435
0.43
0.445
0.45
0.45
0.445
0.435
0.44
0.44
0.45
0.435
0.435
0.435
0.45
0.45
0.465
0.445
0.46
0.455
0.445
0.44
0.42
0.435
0.44
0.45
0.45
0.45
0.455
0.45
0.46
0.475
0.495
0.5
0.525
0.535
0.525
0.52
0.52
0.535
0.555
0.565
0.57
0.555
0.54
0.535
0.535
0.53
0.525
0.515
0.5
0.485
0.48
0.475
0.465
0.455
0.445
0.45
0.44
0.43
0.45
0.445
0.455
0.465
0.45
0.46
0.465
0.475
0.475
0.49
0.61
0.85
1.235
1.68
2.115
2.35
2.31
2.025
1.6
1.15
0.81
0.64
0.58
0.56
0.545
0.525
0.5
0.485
0.49
0.49
0.48
0.455
0.455
0.45
0.455
0.46
0.465
0.475
0.475
0.48
0.48
0.475
0.48
0.485
0.495
0.5
0.495
0.51
0.495
0.495
0.495
0.495
0.505
0.5
0.515
0.52
0.53
0.545
0.565
0.56
0.57
0.58
0.57
0.58
0.595
0.615
0.64
0.66
0.68
0.695
0.705
0.715
0.745
0.75
0.755
0.765
0.775
0.795
0.815
0.815
0.805
0.77
0.75
0.725
0.7
0.675
0.655
0.655
0.655
0.6
0.58
0.555
0.535
0.5
0.52
0.505
0.515
0.5
0.495
0.485
0.49
0.495
0.495
0.485
0.48
0.475
0.46
0.46
0.475
0.465
0.475
0.475
0.48
0.475
0.48
0.48
0.465
0.46
0.46
0.475
0.465
0.455
0.44
0.43
0.43
0.435
0.44
0.435
0.435
0.44
0.43
0.45
0.455
0.475
0.475
0.45
0.475
0.465
0.46
0.455
0.45
0.45
0.455
0.455
0.46
0.45
0.435
0.435
0.44
0.435
0.45
0.445
0.45
0.45
0.45
0.445
0.445
0.435
0.44
0.435
0.45
0.445
0.43
0.445
0.44
0.43
0.425
0.425
0.43
0.43
0.45
0.45
0.45
0.45
0.44
0.44
0.44
0.425
0.425
0.41
0.405
0.41
0.41
0.415
0.425
0.43
0.43
0.425
0.435
0.45
0.45
0.45
0.44
0.435
0.44
0.44
0.44
0.435
0.44
0.425
0.425
0.425
0.43
0.42
0.425
0.43
0.44
0.445
0.44
0.45
0.445
0.44
0.435
0.43
0.44
0.44
0.45
0.455
0.45
0.43
0.45
0.475
0.495
0.5
0.49
0.51
0.515
0.54
0.53
0.515
0.515
0.52
0.515
0.495
0.485
0.48
0.46
0.455
0.45
0.435
0.435
0.435
0.43
0.43
0.425
0.42
0.425
0.43
0.44
0.445
0.45
0.445
0.435
0.45
0.45
0.465
0.58
0.845
1.305
1.83
2.255
2.44
2.285
1.905
1.43
0.98
0.67
0.53
0.5
0.505
0.515
0.505
0.5
0.485
0.455
0.44
0.43
0.425
0.43
0.43
0.435
0.455
0.455
0.465
0.475
0.475
0.475
0.455
0.45
0.45
0.45
0.445
0.45
0.45
0.475
0.475
0.49
0.495
0.495
0.49
0.495
0.495
0.5
0.515
0.53
0.555
0.56
0.555
0.54
0.555
0.56
0.58
0.61
0.66
0.665
0.68
0.69
0.715
0.73
0.735
0.735
0.735
0.735
0.755
0.77
0.79
0.79
0.785
0.775
0.755
0.74
0.7
0.665
0.64
0.61
0.585
0.57
0.545
0.535
0.515
0.495
0.495
0.495
0.495
0.495
0.485
0.48
0.465
0.465
0.46
0.44
0.465
0.46
0.45
0.45
0.43
0.445
0.45
0.455
0.45
0.44
0.445
0.45
0.455
0.455
0.45
0.455
0.45
0.455
0.465
0.475
0.46
0.45
0.445
0.435
0.44
0.44
0.44
0.445
0.435
0.42
0.425
0.43
0.45
0.455
0.465
0.455
0.45
0.45
0.455
0.475
0.475
0.46
0.475
0.46
0.46
0.465
0.445
0.455
0.44
0.44
0.43
0.43
0.435
0.445
0.45
0.45
0.435
0.44
0.44
0.445
0.435
0.43
0.43
0.43
0.435
0.435
0.425
0.425
0.43
0.44
0.43
0.435
0.43
0.43
0.435
0.43
0.435
0.425
0.43
0.435
0.44
0.45
0.45
0.445
0.45
0.45
0.465
0.46
0.45
0.465
0.45
0.43
0.425
0.405
0.415
0.43
0.435
0.45
0.45
0.455
0.45
0.45
0.45
0.44
0.435
0.44
0.45
0.455
0.45
0.455
0.45
0.475
0.48
0.495
0.5
0.5
0.5
0.495
0.515
0.525
0.555
0.57
0.565
0.56
0.54
0.535
0.535
0.525
0.525
0.515
0.485
0.495
0.475
0.465
0.45
0.43
0.435
0.445
0.455
0.445
0.435
0.44
0.44
0.44
0.44
0.445
0.455
0.45
0.445
0.46
0.585
0.87
1.32
1.845
2.31
2.565
2.455
2.1
1.645
1.18
0.805
0.64
0.58
0.56
0.54
0.52
0.495
0.475
0.48
0.475
0.475
0.455
0.45
0.45
0.455
0.475
0.485
0.465
0.475
0.475
0.46
0.46
0.455
0.475
0.485
0.495
0.495
0.5
0.5
0.5
0.495
0.5
0.51
0.515
0.52
0.525
0.525
0.525
0.525
0.545
0.56
0.57
0.58
0.585
0.605
0.63
0.65
0.655
0.66
0.675
0.705
0.715
0.735
0.755
0.76
0.79
0.805
0.82
0.825
0.835
0.81
0.795
0.77
0.75
0.74
0.715
0.69
0.665
0.625
0.61
0.585
0.57
0.56
0.54
0.525
0.505
0.5
0.5
0.5
0.515
0.505
0.5
0.495
0.5
0.5
0.5
0.495
0.495
0.48
0.485
0.475
0.485
0.485
0.49
0.485
0.48
0.485
0.495
0.495
0.495
0.475
0.44
0.45
0.455
0.465
0.46
0.45
0.475
0.48
0.485
0.475
0.465
0.46
0.475
0.475
0.46
0.455
0.46
0.465
0.48
0.48
0.495
0.49
0.485
0.485
0.475
0.475
0.465
0.46
0.46
0.46
0.475
0.465
0.45
0.455
0.455
0.455
0.46
0.475
0.475
0.455
0.45
0.435
0.445
0.45
0.455
0.46
0.465
0.45
0.45
0.45
0.455
0.455
0.445
0.455
0.455
0.455
0.465
0.465
0.455
0.455
0.455
0.475
0.49
0.495
0.485
0.455
0.44
0.43
0.44
0.44
0.455
0.455
0.455
0.445
0.45
0.455
0.465
0.475
0.475
0.455
0.465
0.465
0.475
0.465
0.475
0.475
0.475
0.475
0.465
0.455
0.485
0.495
0.5
0.495
0.475
0.49
0.495
0.485
0.48
0.49
0.5
0.515
0.525
0.535
0.54
0.57
0.59
0.58
0.58
0.57
0.565
0.57
0.56
0.545
0.535
0.525
0.5
0.485
0.455
0.455
0.45
0.455
0.46
0.455
0.455
0.45
0.455
0.475
0.485
0.49
0.485
0.475
0.475
0.475
0.495
0.555
0.765
1.105
1.58
2.065
2.41
2.475
2.195
1.76
1.285
0.905
0.68
0.585
0.57
0.565
0.555
0.54
0.515
0.495
0.495
0.485
0.495
0.485
0.495
0.495
0.495
0.495
0.485
0.48
0.495
0.495
0.495
0.495
0.5
0.5
0.505
0.51
0.515
0.525
0.535
0.525
0.525
0.515
0.495
0.515
0.525
0.54
0.535
0.535
0.56
0.58
0.58
0.58
0.595
0.605
0.625
0.64
0.67
0.695
0.705
0.715
0.735
0.745
0.75
0.76
0.775
0.79
0.81
0.79
0.81
0.81
0.795
0.79
0.78
0.77
0.755
0.735
0.695
0.655
0.625
0.61
0.595
0.585
0.57
0.565
0.53
0.535
0.535
0.535
0.525
0.495
0.515
0.505
0.51
0.5
0.495
0.5
0.5
0.505
0.505
0.5
0.495
0.495
0.5
0.51
0.515
0.51
0.495
0.495
0.495
0.495
0.495
0.495
0.495
0.495
0.495
0.495
0.465
0.495
0.485
0.475
0.465
0.475
0.475
0.485
0.495
0.485
0.485
0.485
0.495
0.495
0.495
0.465
0.465
0.475
0.475
0.485
0.49
0.495
0.495
0.495
0.485
0.475
0.475
0.465
0.465
0.475
0.475
0.455
0.455
0.455
0.475
0.465
0.46
0.475
0.475
0.465
0.465
0.475
0.475
0.465
0.475
0.465
0.455
0.455
0.45
0.45
0.455
0.455
0.45
0.45
0.45
0.445
0.45
0.44
0.46
0.475
0.48
0.475
0.435
0.445
0.445
0.455
0.455
0.475
0.48
0.485
0.485
0.455
0.45
0.45
0.45
0.455
0.45
0.455
0.455
0.455
0.46
0.465
0.475
0.475
0.48
0.475
0.46
0.455
0.45
0.455
0.455
0.45
0.455
0.455
0.46
0.465
0.48
0.48
0.485
0.455
0.495
0.5
0.52
0.53
0.515
0.535
0.535
0.545
0.56
0.56
0.56
0.56
0.545
0.535
0.525
0.52
0.52
0.52
0.515
0.5
0.49
0.465
0.465
0.465
0.465
0.475
0.475
0.475
0.455
0.445
0.435
0.415
0.45
0.455
0.475
0.465
0.475
0.485
0.525
0.685
1.03
1.515
1.995
2.34
2.405
2.165
1.75
1.275
0.88
0.655
0.57
0.535
0.535
0.535
0.515
0.49
0.465
0.455
0.455
0.45
0.45
0.45
0.46
0.465
0.465
0.465
0.46
0.455
0.465
0.465
0.475
0.48
0.475
0.48
0.485
0.485
0.49
0.485
0.485
0.49
0.505
0.515
0.515
0.515
0.525
0.535
0.535
0.54
0.525
0.535
0.54
0.56
0.58
0.62
0.615
0.64
0.655
0.675
0.69
0.695
0.705
0.715
0.735
0.76
0.76
0.77
0.77
0.765
0.765
0.765
0.77
0.755
0.745
0.725
0.69
0.665
0.63
0.6
0.575
0.555
0.555
0.54
0.535
0.52
0.51
0.5
0.5
0.485
0.49
0.485
0.475
0.48
0.48
0.485
0.485
0.45
0.475
0.485
0.495
0.49
0.48
0.475
0.475
0.46
0.45
0.45
0.45
0.445
0.45
0.455
0.475
0.475
0.475
0.45
0.45
0.45
0.445
0.455
0.455
0.45
0.465
0.455
0.455
0.46
0.475
0.465
0.465
0.46
0.45
0.445
0.45
0.45
0.465
0.465
0.475
0.475
0.485
0.45
0.46
0.455
0.455
0.455
0.45
0.475
0.465
0.445
0.43
0.425
0.43
0.43
0.44
0.435
0.445
0.455
0.455
0.455
0.45
0.445
0.435
0.43
0.435
0.45
0.46
0.455
0.445
0.445
0.445
0.45
0.435
0.44
0.44
0.44
0.445
0.44
0.43
0.435
0.435
0.455
0.46
0.45
0.465
0.475
0.475
0.465
0.45
0.465
0.455
0.455
0.45
0.45
0.45
0.435
0.44
0.45
0.45
0.45
0.46
0.455
0.455
0.455
0.45
0.45
0.475
0.465
0.485
0.485
0.48
0.475
0.465
0.46
0.455
0.45
0.475
0.49
0.515
0.53
0.535
0.54
0.545
0.545
0.56
0.565
0.565
0.555
0.56
0.545
0.515
0.525
0.525
0.525
0.515
0.5
0.49
0.475
0.46
0.445
0.45
0.45
0.445
0.455
0.455
0.46
0.475
0.475
0.495
0.495
0.505
0.495
0.495
0.495
0.58
0.79
1.18
1.645
2.075
2.355
2.335
2.03
1.57
1.13
0.785
0.595
0.56
0.555
0.56
0.54
0.535
0.515
0.48
0.495
0.485
0.485
0.485
0.475
0.485
0.48
0.475
0.455
0.45
0.45
0.455
0.46
0.475
0.48
0.495
0.505
0.505
0.515
0.515
0.51
0.515
0.515
0.51
0.52
0.535
0.545
0.555
0.54
0.54
0.54
0.56
0.57
0.585
0.58
0.595
0.61
0.62
0.65
0.66
0.68
0.715
0.715
0.745
0.76
0.77
0.805
0.795
0.81
0.79
0.795
0.805
0.81
0.81
0.795
0.785
0.755
0.73
0.695
0.655
0.62
0.6
0.58
0.565
0.545
0.54
0.53
0.515
0.51
0.515
0.495
0.5
0.485
0.455
0.475
0.46
0.465
0.475
0.495
0.495
0.495
0.495
0.48
0.465
0.46
0.46
0.46
0.475
0.45
0.455
0.455
0.455
0.455
0.45
0.465
0.475
0.475
0.475
0.455
0.455
0.45
0.46
0.455
0.46
0.46
0.475
0.475
0.475
0.455
0.455
0.45
0.45
0.45
0.455
0.455
0.465
0.475
0.455
0.455
0.45
0.46
0.475
0.475
0.475
0.455
0.45
0.445
0.44
0.435
0.44
0.43
0.45
0.455
0.455
0.45
0.42
0.435
0.435
0.445
0.44
0.45
0.45
0.445
0.455
0.45
0.44
0.445
0.45
0.445
0.455
0.46
0.455
0.45
0.45
0.425
0.415
0.425
0.43
0.445
0.445
0.45
0.455
0.455
0.46
0.465
0.46
0.45
0.45
0.45
0.455
0.455
0.445
0.42
0.43
0.43
0.43
0.43
0.415
0.435
0.45
0.455
0.455
0.445
0.45
0.455
0.475
0.475
0.48
0.495
0.5
0.515
0.525
0.53
0.545
0.555
0.555
0.56
0.56
0.555
0.555
0.54
0.52
0.515
0.49
0.455
0.45
0.43
0.435
0.435
0.435
0.435
0.435
0.445
0.45
0.46
0.475
0.46
0.455
0.44
0.43
0.445
0.45
0.455
0.52
0.71
1.025
1.48
1.975
2.35
2.475
2.235
1.795
1.295
0.875
0.645
0.565
0.565
0.57
0.545
0.53
0.51
0.495
0.48
0.455
0.44
0.445
0.44
0.455
0.455
0.475
0.46
0.475
0.475
0.48
0.49
0.49
0.495
0.485
0.495
0.5
0.505
0.495
0.51
0.51
0.51
0.5
0.485
0.51
0.51
0.515
0.515
0.515
0.54
0.545
0.57
0.57
0.585
0.6
0.62
0.64
0.66
0.685
0.705
0.715
0.73
0.75
0.75
0.765
0.77
0.77
0.775
0.775
0.795
0.795
0.805
0.785
0.765
0.75
0.725
0.705
0.68
0.655
0.64
0.62
0.6
0.58
0.57
0.56
0.535
0.54
0.53
0.53
0.51
0.5
0.495
0.48
0.48
0.475
0.465
0.48
0.475
0.485
0.475
0.48
0.475
0.475
0.465
0.475
0.475
0.475
0.48
0.495
0.49
0.485
0.465
0.46
0.455
0.455
0.465
0.465
0.48
0.48
0.48
0.48
0.45
0.435
0.425
0.42
0.43
0.435
0.42
0.445
0.45
0.455
0.46
0.45
0.475
0.475
0.46
0.46
0.465
0.475
0.465
0.475
0.48
0.475
0.475
0.475
0.475
0.475
0.455
0.45
0.44
0.435
0.44
0.435
0.435
0.44
0.44
0.44
0.45
0.45
0.445
0.44
0.435
0.45
0.435
0.44
0.435
0.44
0.445
0.44
0.43
0.45
0.445
0.45
0.45
0.435
0.44
0.44
0.445
0.45
0.455
0.44
0.435
0.43
0.435
0.44
0.45
0.45
0.45
0.455
0.465
0.455
0.455
0.455
0.45
0.45
0.45
0.45
0.455
0.455
0.475
0.475
0.455
0.475
0.45
0.45
0.45
0.455
0.48
0.48
0.475
0.45
0.44
0.43
0.45
0.46
0.48
0.485
0.5
0.505
0.505
0.52
0.535
0.57
0.57
0.555
0.54
0.54
0.54
0.53
0.535
0.52
0.51
0.495
0.485
0.475
0.455
0.465
0.465
0.475
0.45
0.44
0.435
0.43
0.435
0.45
0.445
0.455
0.445
0.455
0.455
0.465
0.54
0.76
1.16
1.685
2.17
2.48
2.435
2.09
1.625
1.165
0.81
0.625
0.53
0.54
0.535
0.525
0.505
0.495
0.495
0.495
0.495
0.5
0.49
0.475
0.45
0.445
0.44
0.45
0.445
0.465
0.465
0.465
0.465
0.465
0.475
0.485
0.465
0.475
0.485
0.495
0.495
0.51
0.51
0.505
0.51
0.51
0.525
0.54
0.545
0.555
0.57
0.58
0.57
0.58
0.56
0.585
0.61
0.605
0.62
0.645
0.655
0.685
0.71
0.735
0.75
0.76
0.775
0.79
0.795
0.805
0.81
0.815
0.785
0.78
0.755
0.75
0.725
0.69
0.66
0.61
0.57
0.54
0.53
0.525
0.52
0.51
0.51
0.515
0.505
0.51
0.51
0.5
0.5
0.495
0.495
0.495
0.475
0.485
0.485
0.485
0.485
0.485
0.5
0.495
0.495
0.495
0.465
0.455
0.44
0.45
0.45
0.45
0.45
0.455
0.455
0.46
0.465
0.475
0.485
0.495
0.49
0.465
0.45
0.45
0.435
0.435
0.45
0.45
0.45
0.455
0.45
0.455
0.45
0.455
0.465
0.475
0.475
0.48
0.455
0.485
0.465
0.465
0.465
0.455
0.465
0.46
0.455
0.455
0.445
0.455
0.455
0.46
0.455
0.455
0.45
0.44
0.435
0.445
0.45
0.445
0.45
0.44
0.45
0.455
0.455
0.465
0.45
0.445
0.44
0.44
0.43
0.44
0.45
0.45
0.45
0.45
0.44
0.44
0.45
0.455
0.455
0.465
0.48
0.485
0.465
0.435
0.44
0.44
0.44
0.44
0.44
0.45
0.455
0.465
0.455
0.45
0.45
0.445
0.455
0.475
0.48
0.49
0.485
0.475
0.465
0.455
0.445
0.45
0.455
0.455
0.465
0.45
0.45
0.45
0.46
0.495
0.495
0.5
0.51
0.52
0.525
0.525
0.535
0.535
0.555
0.57
0.57
0.54
0.565
0.57
0.565
0.56
0.525
0.53
0.5
0.495
0.485
0.465
0.475
0.455
0.45
0.45
0.44
0.45
0.45
0.445
0.455
0.475
0.48
0.48
0.485
0.475
0.46
0.48
0.555
0.75
1.14
1.625
2.09
2.38
2.415
2.155
1.725
1.28
0.895
0.69
0.615
0.585
0.58
0.54
0.535
0.515
0.495
0.475
0.45
0.465
0.455
0.455
0.465
0.465
0.465
0.485
0.48
0.475
0.475
0.475
0.475
0.475
0.495
0.51
0.515
0.525
0.53
0.535
0.54
0.52
0.52
0.515
0.51
0.52
0.525
0.505
0.53
0.545
0.56
0.57
0.585
0.595
0.6
0.605
0.615
0.645
0.655
0.67
0.68
0.7
0.73
0.725
0.735
0.755
0.785
0.82
0.825
0.825
0.815
0.79
0.77
0.755
0.735
0.71
0.7
0.685
0.665
0.645
0.62
0.6
0.58
0.58
0.56
0.555
0.525
0.525
0.52
0.535
0.52
0.51
0.49
0.475
0.475
0.49
0.495
0.51
0.49
0.49
0.495
0.495
0.495
0.495
0.485
0.495
0.49
0.485
0.465
0.45
0.46
0.475
0.485
0.48
0.48
0.485
0.49
0.5
0.495
0.475
0.46
0.455
0.455
0.455
0.455
0.475
0.465
0.48
0.475
0.475
0.465
0.485
0.49
0.495
0.495
0.485
0.475
0.46
0.46
0.48
0.475
0.465
0.45
0.455
0.465
0.475
0.45
0.48
0.485
0.495
0.495
0.45
0.45
0.45
0.43
0.43
0.435
0.445
0.445
0.455
0.46
0.475
0.465
0.46
0.475
0.46
0.475
0.465
0.48
0.485
0.485
0.485
0.455
0.44
0.44
0.425
0.44
0.45
0.45
0.465
0.455
0.475
0.475
0.485
0.475
0.46
0.455
0.45
0.45
0.45
0.45
0.465
0.465
0.445
0.45
0.455
0.46
0.48
0.46
0.485
0.475
0.475
0.485
0.485
0.485
0.48
0.475
0.465
0.455
0.465
0.475
0.475
0.48
0.495
0.51
0.525
0.535
0.535
0.535
0.54
0.56
0.58
0.59
0.585
0.565
0.56
0.545
0.555
0.535
0.525
0.51
0.495
0.485
0.48
0.475
0.45
0.46
0.475
0.465
0.475
0.465
0.485
0.475
0.465
0.45
0.45
0.46
0.48
0.485
0.485
0.5
0.6
0.84
1.26
1.765
2.21
2.395
2.265
1.9
1.445
1.01
0.73
0.605
0.565
0.545
0.54
0.525
0.495
0.495
0.485
0.485
0.485
0.48
0.475
0.465
0.465
0.475
0.48
0.485
0.495
0.5
0.5
0.495
0.5
0.485
0.495
0.485
0.49
0.495
0.5
0.5
0.51
0.51
0.515
0.525
0.525
0.535
0.535
0.53
0.53
0.545
0.57
0.575
0.58
0.59
0.6
0.62
0.64
0.655
0.67
0.68
0.7
0.715
0.75
0.765
0.775
0.785
0.79
0.805
0.805
0.795
0.79
0.775
0.76
0.765
0.735
0.715
0.69
0.68
0.665
0.625
0.61
0.58
0.57
0.54
0.535
0.535
0.535
0.515
0.495
0.49
0.495
0.495
0.485
0.49
0.485
0.485
0.485
0.475
0.475
0.46
0.465
0.475
0.46
0.475
0.475
0.465
0.46
0.455
0.465
0.465
0.465
0.465
0.465
0.465
0.46
0.435
0.455
0.455
0.455
0.45
0.435
0.455
0.46
0.455
0.465
0.45
0.45
0.45
0.45
0.455
0.455
0.465
0.465
0.475
0.46
0.465
0.455
0.445
0.445
0.445
0.455
0.455
0.455
0.45
0.455
0.455
0.45
0.44
0.455
0.45
0.45
0.45
0.45
0.445
0.45
0.445
0.44
0.435
0.435
0.44
0.44
0.435
0.415
0.43
0.44
0.43
0.43
0.42
0.425
0.43
0.44
0.435
0.435
0.445
0.44
0.435
0.43
0.43
0.43
0.44
0.45
0.45
0.45
0.45
0.44
0.435
0.435
0.445
0.445
0.45
0.45
0.435
0.44
0.425
0.43
0.435
0.435
0.45
0.45
0.45
0.45
0.45
0.45
0.45
0.44
0.455
0.45
0.45
0.445
0.435
0.45
0.455
0.465
0.485
0.495
0.495
0.5
0.505
0.515
0.525
0.545
0.54
0.535
0.525
0.53
0.53
0.525
0.515
0.505
0.49
0.475
0.455
0.44
0.43
0.43
0.43
0.44
0.445
0.44
0.45
0.44
0.44
0.435
0.43
0.44
0.45
0.44
0.465
0.465
0.495
0.62
0.915
1.32
1.79
2.215
2.415
2.32
1.955
1.5
1.045
0.735
0.58
0.54
0.535
0.53
0.525
0.515
0.495
0.495
0.48
0.455
0.45
0.44
0.45
0.45
0.455
0.465
0.46
0.455
0.485
0.485
0.465
0.455
0.455
0.45
0.455
0.475
0.475
0.485
0.49
0.485
0.495
0.5
0.495
0.52
0.525
0.525
0.525
0.525
0.54
0.555
0.565
0.57
0.57
0.585
0.595
0.61
0.64
0.66
0.67
0.69
0.7
0.715
0.73
0.75
0.75
0.765
0.77
0.77
0.78
0.775
0.78
0.77
0.75
0.735
0.705
0.685
0.665
0.655
0.62
0.605
0.595
0.575
0.565
0.54
0.515
0.52
0.5
0.495
0.48
0.455
0.475
0.475
0.485
0.485
0.475
0.485
0.48
0.48
0.46
0.46
0.475
0.475
0.475
0.465
0.45
0.445
0.45
0.44
0.445
0.45
0.455
0.465
0.455
0.455
0.455
0.455
0.455
0.46
0.455
0.46
0.46
0.48
0.48
0.475
0.48
0.475
0.465
0.48
0.455
0.455
0.45
0.435
0.445
0.45
0.465
0.465
0.455
0.455
0.455
0.475
0.465
0.475
0.46
0.46
0.455
0.455
0.455
0.46
0.465
0.46
0.455
0.455
0.45
0.455
0.46
0.46
0.46
0.455
0.45
0.46
0.46
0.46
0.45
0.45
0.445
0.46
0.475
0.465
0.475
0.465
0.455
0.45
0.435
0.415
0.445
0.45
0.465
0.475
0.455
0.475
0.465
0.455
0.445
0.445
0.45
0.455
0.455
0.46
0.475
0.485
0.475
0.475
0.455
0.455
0.455
0.475
0.465
0.465
0.475
0.475
0.465
0.485
0.475
0.475
0.455
0.46
0.455
0.455
0.455
0.465
0.475
0.485
0.48
0.495
0.5
0.495
0.535
0.53
0.535
0.54
0.535
0.57
0.57
0.56
0.56
0.555
0.545
0.56
0.555
0.555
0.535
0.535
0.515
0.5
0.49
0.485
0.465
0.46
0.455
0.455
0.465
0.455
0.465
0.475
0.465
0.49
0.485
0.485
0.51
0.51
0.515
0.57
0.735
1.075
1.53
2.01
2.36
2.455
2.245
1.845
1.38
0.98
0.725
0.6
0.58
0.57
0.56
0.535
0.515
0.5
0.495
0.485
0.48
0.49
0.49
0.495
0.49
0.49
0.485
0.485
0.485
0.495
0.495
0.5
0.495
0.495
0.485
0.5
0.49
0.5
0.51
0.515
0.51
0.51
0.515
0.52
0.525
0.53
0.535
0.535
0.555
0.56
0.57
0.585
0.62
0.61
0.62
0.615
0.63
0.67
0.66
0.685
0.69
0.715
0.73
0.735
0.755
0.765
0.785
0.795
0.81
0.81
0.795
0.79
0.775
0.765
0.745
0.73
