3.34
3.37
3.34
3.32
3.3
3.265
3.295
3.305
3.265
3.255
3.22
3.18
3.15
3.115
3.115
3.1
3.08
3.075
3.08
3.01
2.99
3.025
3.015
3.03
3.05
3.03
3.025
3.03
2.995
2.99
3.045
3.065
3.025
2.995
2.975
3.025
3.025
3.025
2.985
2.995
3.015
3.015
2.995
3.015
3.01
2.975
2.955
2.99
2.99
2.985
2.985
2.985
2.955
2.97
2.975
2.995
2.99
2.97
2.97
2.975
2.99
2.97
2.975
2.99
2.995
2.975
2.97
2.99
2.985
2.975
2.97
2.99
2.985
2.975
2.975
2.975
2.97
2.975
2.995
2.95
2.975
2.985
2.985
2.99
2.965
2.975
2.985
2.985
2.99
2.975
2.985
2.995
2.985
2.99
2.99
2.965
2.985
2.985
2.995
2.97
2.995
2.995
2.995
2.995
3.01
2.995
2.995
2.99
2.995
2.995
3.005
2.995
2.985
3.005
2.995
2.99
3.005
2.995
2.995
2.995
2.995
3.005
2.99
2.995
3.005
2.99
2.975
2.97
2.975
2.945
2.92
2.945
2.965
2.95
2.99
3.07
3.08
3.05
3.015
2.995
2.965
2.965
2.955
2.945
2.955
2.965
2.945
2.925
2.925
2.92
2.91
2.92
2.93
2.93
2.9
2.89
2.9
2.93
2.925
2.945
3.005
3.08
3.16
3.22
3.205
3.015
2.705
2.47
2.28
2.32
2.325
2.345
2.505
2.7
2.845
2.885
2.88
2.905
2.91
2.93
2.95
2.925
2.95
2.965
2.95
2.95
2.97
2.97
2.955
2.97
2.975
2.99
3.03
2.995
2.995
3.005
3.015
2.995
3.05
3.07
3.065
3.05
3.055
3.07
3.07
3.09
3.09
3.09
3.09
3.11
3.12
3.12
3.13
3.13
3.17
3.18
3.18
3.18
3.19
3.195
3.195
3.205
3.22
3.245
3.255
3.265
3.275
3.305
3.3
3.32
3.32
3.325
3.34
3.34
3.34
3.365
3.36
3.36
3.385
3.365
3.365
3.325
3.32
3.295
3.275
3.235
3.195
3.19
3.18
3.15
3.115
3.1
3.095
3.08
3.08
3.08
3.055
3.075
3.075
3.055
3.05
3.055
3.065
3.07
3.065
3.055
3.065
3.075
3.075
3.065
3.065
3.08
3.075
3.065
3.05
3.055
3.075
3.075
3.05
3.065
3.055
3.05
3.07
3.055
3.055
3.055
3.065
3.075
3.065
3.065
3.05
3.065
3.065
3.07
3.055
3.05
3.055
3.07
3.065
3.03
3.055
3.065
3.075
3.075
3.055
3.055
3.07
3.065
3.065
3.07
3.05
3.065
3.065
3.055
3.07
3.035
3.075
3.075
3.065
3.065
3.07
3.065
3.065
3.065
3.07
3.07
3.065
3.065
3.065
3.07
3.08
3.075
3.07
3.075
3.065
3.07
3.065
3.07
3.055
3.07
3.07
3.07
3.03
3.065
3.065
3.07
3.075
3.065
3.065
3.065
3.065
3.075
3.08
3.1
3.065
3.065
3.075
3.08
3.05
3.075
3.075
3.065
3.065
3.065
3.03
3.025
3.05
3.035
3.05
3.1
3.15
3.115
3.075
3.1
3.09
3.11
3.095
3.08
3.09
3.1
3.1
3.075
3.055
3.065
3.07
3.065
3.055
3.065
3.065
3.075
3.055
3.075
3.08
3.1
3.155
3.235
3.315
3.41
3.47
3.495
3.26
2.87
2.595
2.425
2.45
2.42
2.39
2.58
2.82
2.965
3.045
3.07
3.05
3.05
3.05
3.07
3.09
3.07
3.09
3.09
3.11
3.12
3.115
3.12
3.12
3.135
3.13
3.135
3.13
3.13
3.13
3.15
3.155
3.16
3.155
3.18
3.175
3.175
3.18
3.195
3.215
3.215
3.215
3.215
3.24
3.24
3.245
3.255
3.265
3.28
3.28
3.295
3.305
3.305
3.315
3.33
3.345
3.36
3.365
3.385
3.425
3.41
3.42
3.43
3.45
3.47
3.465
3.485
3.49
3.495
3.495
3.495
3.505
3.485
3.475
3.465
3.455
3.42
3.39
3.37
3.345
3.305
3.295
3.28
3.255
3.235
3.205
3.195
3.19
3.205
3.19
3.18
3.175
3.175
3.18
3.19
3.175
3.175
3.19
3.18
3.175
3.16
3.16
3.195
3.16
3.16
3.175
3.17
3.16
3.155
3.155
3.16
3.155
3.155
3.155
3.16
3.17
3.17
3.175
3.18
3.155
3.16
3.16
3.17
3.16
3.155
3.155
3.155
3.155
3.14
3.155
3.155
3.155
3.155
3.15
3.16
3.155
3.155
3.13
3.14
3.155
3.155
3.15
3.15
3.15
3.155
3.155
3.155
3.155
3.155
3.15
3.155
3.16
3.155
3.155
3.155
3.16
3.155
3.155
3.16
3.17
3.16
3.19
3.16
3.17
3.18
3.17
3.18
3.18
3.18
3.175
3.175
3.16
3.175
3.17
3.175
3.175
3.18
3.215
3.18
3.19
3.175
3.175
3.175
3.18
3.19
3.19
3.18
3.18
3.18
3.18
3.175
3.18
3.17
3.155
3.155
3.16
3.155
3.155
3.22
3.225
3.19
3.2
3.2
3.19
3.205
3.17
3.17
3.18
3.19
3.18
3.17
3.14
3.15
3.155
3.155
3.16
3.175
3.17
3.16
3.15
3.175
3.16
3.195
3.26
3.34
3.42
3.47
3.505
3.445
3.14
2.755
2.45
2.37
2.425
2.42
2.49
2.7
2.89
3.015
3.1
3.14
3.115
3.1
3.12
3.14
3.155
3.155
3.155
3.155
3.16
3.16
3.16
3.16
3.155
3.17
3.175
3.16
3.16
3.175
3.18
3.195
3.205
3.2
3.225
3.205
3.195
3.205
3.205
3.225
3.22
3.225
3.22
3.235
3.24
3.26
3.265
3.265
3.265
3.275
3.315
3.3
3.3
3.32
3.32
3.33
3.34
3.345
3.365
3.38
3.38
3.39
3.4
3.41
3.42
3.425
3.44
3.445
3.45
3.455
3.465
3.45
3.45
3.45
3.44
3.42
3.39
3.38
3.345
3.32
3.295
3.265
3.255
3.235
3.215
3.19
3.175
3.16
3.155
3.155
3.14
3.15
3.13
3.155
3.135
3.12
3.115
3.135
3.135
3.12
3.12
3.115
3.13
3.13
3.12
3.12
3.12
3.12
3.12
3.11
3.13
3.115
3.115
3.115
3.12
3.115
3.115
3.115
3.115
3.12
3.1
3.11
3.12
3.1
3.11
3.1
3.1
3.1
3.095
3.1
3.1
3.1
3.1
3.1
3.09
3.11
3.095
3.1
3.09
3.095
3.1
3.1
3.1
3.1
3.1
3.1
3.11
3.11
3.11
3.1
3.11
3.115
3.075
3.1
3.12
3.11
3.115
3.11
3.1
3.11
3.11
3.115
3.1
3.1
3.1
3.11
3.1
3.1
3.075
3.1
3.11
3.11
3.09
3.11
3.1
3.1
3.1
3.11
3.1
3.1
3.09
3.095
3.1
3.12
3.1
3.1
3.11
3.1
3.1
3.11
3.115
3.115
3.115
3.12
3.135
3.1
3.11
3.11
3.12
3.12
3.095
3.065
3.065
3.065
3.07
3.09
3.17
3.16
3.115
3.115
3.13
3.11
3.115
3.1
3.1
3.12
3.135
3.12
3.11
3.09
3.08
3.09
3.09
3.1
3.1
3.09
3.1
3.095
3.1
3.095
3.12
3.19
3.24
3.32
3.41
3.45
3.39
3.12
2.84
2.65
2.55
2.61
2.565
2.555
2.735
2.91
3.025
3.05
3.05
3.065
3.075
3.075
3.075
3.095
3.075
3.1
3.1
3.11
3.115
3.1
3.1
3.12
3.12
3.12
3.115
3.12
3.13
3.135
3.12
3.12
3.115
3.155
3.15
3.155
3.16
3.17
3.18
3.18
3.195
3.2
3.205
3.215
3.205
3.22
3.225
3.235
3.255
3.255
3.26
3.285
3.295
3.3
3.305
3.32
3.34
3.35
3.365
3.39
3.38
3.385
3.4
3.39
3.41
3.41
3.42
3.425
3.43
3.43
3.44
3.44
3.43
3.42
3.405
3.425
3.4
3.365
3.345
3.34
3.315
3.275
3.24
3.225
3.2
3.17
3.16
3.155
3.15
3.12
3.13
3.11
3.12
3.12
3.12
3.13
3.13
3.12
3.115
3.12
3.135
3.135
3.115
3.11
3.11
3.12
3.13
3.115
3.12
3.115
3.1
3.11
3.115
3.115
3.115
3.115
3.11
3.11
3.09
3.115
3.1
3.1
3.11
3.11
3.12
3.115
3.095
3.095
3.11
3.115
3.1
3.1
3.1
3.1
3.095
3.1
3.075
3.05
3.055
3.07
3.1
3.13
3.115
3.115
3.135
3.1
3.09
3.08
3.09
3.12
3.155
3.115
3.11
3.115
3.135
3.115
3.11
3.115
3.12
3.11
3.115
3.12
3.11
3.1
3.11
3.12
3.12
3.1
3.075
3.065
3.055
3.095
3.12
3.12
3.15
3.135
3.135
3.17
3.14
3.16
3.15
3.14
3.15
3.13
3.115
3.1
3.09
3.11
3.11
3.115
3.11
3.115
3.11
3.08
3.11
3.115
3.12
3.12
3.13
3.15
3.135
3.13
3.12
3.12
3.08
3.05
3.065
3.075
3.09
3.09
3.155
3.19
3.155
3.12
3.11
3.14
3.16
3.15
3.12
3.1
3.07
3.1
3.11
3.09
3.05
3.065
3.1
3.12
3.12
3.11
3.12
3.135
3.115
3.12
3.115
3.18
3.295
3.35
3.425
3.47
3.45
3.255
2.94
2.675
2.51
2.55
2.515
2.47
2.59
2.795
2.945
3.035
3.035
3.055
3.055
3.065
3.08
3.1
3.115
3.115
3.1
3.11
3.12
3.12
3.135
3.13
3.13
3.15
3.13
3.15
3.15
3.13
3.13
3.15
3.155
3.175
3.155
3.155
3.155
3.2
3.2
3.18
3.18
3.2
3.215
3.205
3.205
3.205
3.225
3.235
3.24
3.24
3.26
3.265
3.265
3.275
3.26
3.255
3.265
3.3
3.34
3.34
3.34
3.35
3.36
3.35
3.345
3.35
3.37
3.385
3.4
3.42
3.42
3.43
3.42
3.385
3.385
3.37
3.35
3.34
3.315
3.265
3.24
3.215
3.195
3.205
3.205
3.18
3.16
3.155
3.14
3.12
3.12
3.1
3.07
3.055
3.075
3.135
3.18
3.14
3.12
3.11
3.11
3.09
3.095
3.115
3.115
3.11
3.11
3.09
3.075
3.065
3.065
3.1
3.075
3.11
3.13
3.12
3.12
3.11
3.11
3.1
3.095
3.11
3.09
3.09
3.08
3.075
3.07
3.05
3.05
3.09
3.11
3.09
3.08
3.075
3.065
3.05
3.05
3.075
3.08
3.05
3.055
3.08
3.11
3.135
3.115
3.075
3.05
3.05
3.05
3.065
3.08
3.075
3.07
3.09
3.115
3.08
3.08
3.08
3.1
3.08
3.05
3.05
3.05
3.05
3.055
3.05
3.045
3.05
3.075
3.1
3.1
3.065
3.07
3.08
3.08
3.1
3.095
3.1
3.11
3.075
3.05
3.055
3.055
3.08
3.095
3.065
3.065
3.07
3.055
3.09
3.13
3.075
3.05
3.065
3.075
3.065
3.03
3.045
3.025
3.09
3.1
3.08
3.09
3.1
3.075
3.05
3.055
3.065
3.05
3.065
3.035
3.005
3.01
3.005
2.99
3.045
3.095
3.095
3.07
3.075
3.065
3.065
3.055
3.05
3.05
3.055
3.07
3.065
3.05
3.015
3.025
3.035
3.045
3.055
3.09
3.1
3.075
3.065
3.065
3.065
3.1
3.17
3.225
3.295
3.38
3.39
3.28
2.995
2.785
2.655
2.555
2.63
2.595
2.57
2.72
2.89
2.985
2.97
2.995
3.01
3.05
3.11
3.08
3.08
3.09
3.095
3.1
3.1
3.095
3.095
3.095
3.1
3.11
3.095
3.095
3.11
3.12
3.12
3.13
3.115
3.115
3.12
3.135
3.135
3.13
3.14
3.14
3.15
3.14
3.16
3.18
3.19
3.19
3.195
3.195
3.205
3.22
3.235
3.235
3.24
3.275
3.265
3.275
3.285
3.315
3.32
3.32
3.33
3.34
3.36
3.365
3.38
3.38
3.38
3.39
3.42
3.43
3.41
3.42
3.41
3.405
3.4
3.39
3.39
3.38
3.37
3.345
3.315
3.3
3.285
3.26
3.235
3.235
3.2
3.19
3.16
3.14
3.14
3.15
3.135
3.13
3.135
3.135
3.135
3.14
3.15
3.14
3.15
3.155
3.135
3.12
3.115
3.12
3.12
3.15
3.14
3.12
3.1
3.11
3.08
3.12
3.1
3.1
3.115
3.11
3.1
3.09
3.08
3.1
3.115
3.095
3.095
3.1
3.115
3.13
3.08
3.1
3.1
3.09
3.11
3.12
3.12
3.09
3.1
3.1
3.08
3.095
3.1
3.1
3.1
3.1
3.09
3.095
3.1
3.11
3.08
3.065
3.075
3.095
3.08
3.075
3.095
3.1
3.095
3.08
3.08
3.075
3.075
3.075
3.09
3.09
3.1
3.1
3.09
3.1
3.1
3.1
3.08
3.05
3.08
3.08
3.075
3.065
3.065
3.095
3.1
3.11
3.1
3.1
3.08
3.08
3.1
3.1
3.12
3.09
3.07
3.075
3.11
3.115
3.09
3.09
3.08
3.09
3.09
3.08
3.09
3.095
3.1
3.08
3.095
3.08
3.08
3.095
3.08
3.09
3.075
3.08
3.09
3.08
3.08
3.09
3.07
3.08
3.075
3.075
3.09
3.08
3.09
3.075
3.035
3.055
3.1
3.14
3.15
3.195
3.225
3.18
3.155
3.095
3.075
3.07
3.075
3.07
3.09
3.115
3.11
3.08
3.055
3.055
3.07
3.065
3.07
3.065
3.05
3.065
3.075
3.07
3.07
3.115
3.19
3.235
3.325
3.39
3.385
3.205
2.89
2.68
2.51
2.525
2.53
2.49
2.6
2.8
2.945
2.995
2.995
3.005
3.025
3.03
3.05
3.03
3.055
3.05
3.065
3.065
3.065
3.07
3.075
3.07
3.075
3.08
3.075
3.07
3.075
3.08
3.08
3.075
3.09
3.12
3.12
3.12
3.12
3.13
3.13
3.14
3.13
3.12
3.12
3.12
3.15
3.19
3.19
3.18
3.2
3.205
3.22
3.225
3.215
3.235
3.24
3.245
3.26
3.275
3.305
3.305
3.305
3.32
3.32
3.34
3.33
3.34
3.325
3.345
3.365
3.38
3.4
3.39
3.385
3.385
3.42
3.38
3.4
3.405
3.365
3.34
3.315
3.295
3.265
3.235
3.215
3.19
3.17
3.15
3.135
3.12
3.1
3.12
3.115
3.11
3.115
3.1
3.11
3.1
3.11
3.095
3.095
3.08
3.095
3.08
3.095
3.095
3.08
3.095
3.095
3.08
3.08
3.09
3.08
3.08
3.08
3.08
3.09
3.07
3.075
3.075
3.075
3.08
3.075
3.075
3.065
3.055
3.075
3.08
3.11
3.07
3.075
3.075
3.08
3.05
3.065
3.065
3.07
3.07
3.065
3.075
3.08
3.075
3.075
3.065
3.065
3.065
3.065
3.07
3.065
3.055
3.065
3.075
3.065
3.07
3.065
3.065
3.065
3.07
3.065
3.075
3.075
3.07
3.065
3.075
3.075
3.065
3.065
3.07
3.075
3.065
3.07
3.075
3.08
3.07
3.075
3.075
3.055
3.07
3.055
3.075
3.09
3.07
3.08
3.075
3.065
3.065
3.075
3.08
3.09
3.08
3.07
3.08
3.055
3.075
3.075
3.07
3.075
3.08
3.07
3.075
3.075
3.075
3.08
3.08
3.065
3.07
3.07
3.065
3.055
3.065
3.065
3.07
3.065
3.055
3.055
3.045
3.05
3.07
3.065
3.05
3.065
3.075
3.055
3.05
3.05
3.03
3.015
3.05
3.045
2.995
3.015
3.075
3.025
2.965
2.94
2.89
2.91
2.925
2.945
2.95
2.985
3.005
2.995
2.99
2.975
2.995
3.01
3.025
3.03
3.045
3.05
3.03
3.05
3.055
3.07
3.11
3.18
3.255
3.34
3.4
3.43
3.32
2.99
2.68
2.475
2.41
2.445
2.39
2.45
2.675
2.865
2.97
3.005
3.035
3.03
3.03
3.035
3.035
3.03
3.065
3.08
3.08
3.08
3.065
3.065
3.065
3.05
3.075
3.095
3.12
3.12
3.1
3.07
3.07
3.05
3.11
3.135
3.16
3.205
3.215
3.2
3.19
3.18
3.18
3.135
3.155
3.18
3.12
3.075
3.13
3.16
3.195
3.235
3.19
3.18
3.215
3.215
3.18
3.205
3.255
3.315
3.315
3.295
3.285
3.3
3.28
3.275
3.3
3.345
3.295
3.265
3.215
3.16
3.24
3.34
3.34
3.33
3.38
3.365
3.35
3.285
3.2
3.135
3.15
3.19
3.175
3.12
3.1
3.11
3.11
3.09
3.075
3.045
2.97
3.025
3.025
2.97
2.95
2.945
2.885
2.94
3.065
3.03
2.94
2.945
2.995
3.015
3.03
3.025
2.965
2.945
2.94
2.95
2.95
2.955
2.97
2.975
2.85
2.845
2.975
3.045
3.045
2.995
2.91
2.905
2.97
3.015
3.025
2.995
2.945
2.97
2.985
2.97
3.005
3.045
3.07
3.055
3.075
3.05
3.015
3.035
3.035
3.01
3.005
3.03
3.075
3.03
2.925
2.965
3.095
3.155
3.155
3.175
3.135
3.11
3.1
3.11
3.11
3.1
3.1
3.1
3.11
3.115
3.1
3.1
3.095
3.09
3.1
3.1
3.1
3.11
3.1
3.115
3.12
3.12
3.13
3.135
3.135
3.12
3.095
3.135
3.14
3.13
3.135
3.15
3.15
3.15
3.13
3.135
3.13
3.115
3.1
3.11
3.1
3.1
3.095
3.11
3.1
3.08
3.075
3.08
3.095
3.095
3.095
3.1
3.1
3.08
3.1
3.12
3.115
3.11
3.1
3.15
3.17
3.19
3.225
3.26
3.26
3.235
3.18
3.135
3.12
3.12
3.12
3.12
3.155
3.16
3.175
3.15
3.12
3.12
3.14
3.15
3.16
3.17
3.155
3.15
3.135
3.18
3.16
3.22
3.3
3.385
3.465
3.505
3.53
3.44
3.1
2.695
2.37
2.285
2.365
2.345
2.4
2.61
2.815
2.95
3.065
3.13
3.135
3.115
3.115
3.13
3.14
3.16
3.17
3.17
3.16
3.17
3.17
3.18
3.17
3.155
3.18
3.195
3.175
3.195
3.205
3.205
3.205
3.205
3.235
3.215
3.22
3.235
3.235
3.26
3.24
3.26
3.26
3.255
3.26
3.265
3.275
3.285
3.295
3.295
3.32
3.305
3.34
3.33
3.34
3.345
3.36
3.39
3.385
3.385
3.39
3.41
3.425
3.44
3.44
3.455
3.49
3.465
3.475
3.485
3.475
3.485
3.495
3.49
3.485
3.475
3.47
3.47
3.45
3.43
3.405
3.38
3.36
3.325
3.3
3.28
3.265
3.24
3.225
3.205
3.2
3.19
3.17
3.2
3.17
3.16
3.155
3.16
3.17
3.17
3.16
3.17
3.15
3.15
3.14
3.15
3.155
3.155
3.14
3.175
3.155
3.155
3.14
3.15
3.14
3.155
3.15
3.15
3.135
3.135
3.13
3.135
3.155
3.16
3.135
3.12
3.13
3.12
3.12
3.12
3.12
3.12
3.12
3.1
3.11
3.12
3.115
3.115
3.11
3.12
3.12
3.11
3.11
3.1
3.1
3.11
3.095
3.1
3.11
3.1
3.1
3.11
3.075
3.095
3.095
3.1
3.115
3.1
3.1
3.1
3.1
3.1
3.11
3.1
3.1
3.1
3.11
3.11
3.09
3.11
3.11
3.11
3.1
3.1
3.1
3.11
3.12
3.115
3.1
3.1
3.1
3.1
3.09
3.1
3.09
3.095
3.1
3.1
3.1
3.1
3.1
3.115
3.11
3.11
3.11
3.1
3.1
3.11
3.095
3.1
3.09
3.095
3.095
3.1
3.1
3.11
3.12
3.11
3.08
3.065
3.08
3.095
3.13
3.18
3.22
3.235
3.205
3.16
3.1
3.075
3.075
3.075
3.08
3.1
3.115
3.115
3.09
3.03
3.05
3.05
3.055
3.065
3.05
3.055
3.065
3.055
3.055
3.075
3.12
3.205
3.265
3.35
3.4
3.37
3.17
2.82
2.555
2.37
2.39
2.44
2.405
2.49
2.705
2.88
2.945
2.995
2.995
3.005
3.005
3.015
3.035
3.045
3.035
3.055
3.065
3.075
3.055
3.055
3.05
3.07
3.05
3.055
3.07
3.075
3.08
3.09
3.075
3.08
3.08
3.08
3.1
3.08
3.1
3.11
3.115
3.13
3.12
3.135
3.14
3.155
3.155
3.16
3.17
3.19
3.195
3.205
3.2
3.225
3.225
3.235
3.235
3.255
3.265
3.275
3.295
3.3
3.315
3.34
3.34
3.36
3.365
3.365
3.37
3.405
3.385
3.4
3.39
3.39
3.405
3.4
3.385
3.365
3.345
3.34
3.315
3.285
3.26
3.235
3.215
3.205
3.16
3.135
3.12
3.11
3.095
3.08
3.08
3.075
3.075
3.075
3.07
3.065
3.065
3.075
3.065
3.055
3.07
3.065
3.07
3.065
3.055
3.065
3.055
3.055
3.055
3.065
3.035
3.065
3.065
3.065
3.065
3.055
3.055
3.05
3.05
3.05
3.055
3.075
3.065
3.05
3.035
3.05
3.025
3.035
3.045
3.045
3.05
3.05
3.035
3.035
3.035
3.05
3.045
3.03
3.025
3.03
3.03
3.035
3.015
3.025
3.03
3.03
3.045
3.035
3.03
3.03
3.025
3.03
3.03
3.025
3.03
3.025
3.03
3.025
3.015
3.025
3.045
3.035
3.035
3.045
3.045
3.035
3.03
3.03
3.035
3.025
3.045
3.03
3.035
3.045
3.035
3.05
3.05
3.045
3.035
3.05
3.055
3.05
3.035
3.05
3.055
3.03
3.045
3.055
3.055
3.05
3.05
3.05
3.045
3.05
3.05
3.055
3.05
3.05
3.045
3.05
3.045
3.05
3.03
3.005
3.025
3.05
3.065
3.075
3.135
3.175
3.155
3.12
3.095
3.07
3.05
3.045
3.035
3.035
3.065
3.08
3.065
3.025
3.025
3.025
3.03
3.03
3.025
3.025
3.005
3.015
3.025
3.025
3.03
3.075
3.16
3.225
3.315
3.385
3.37
3.245
2.925
2.635
2.44
2.385
2.425
2.37
2.39
2.615
2.805
2.925
2.955
2.97
2.975
2.995
3.005
2.995
3.005
3.025
3.025
3.025
3.025
3.025
3.025
3.045
3.035
3.05
3.035
3.035
3.05
3.045
3.05
3.035
3.055
3.07
3.075
3.075
3.07
3.08
3.1
3.095
3.095
3.11
3.13
3.13
3.135
3.135
3.14
3.175
3.16
3.175
3.175
3.18
3.2
3.205
3.22
3.225
3.235
3.24
3.26
3.265
3.28
3.285
3.305
3.345
3.34
3.34
3.345
3.36
3.37
3.38
3.385
3.385
3.39
3.39
3.38
3.39
3.37
3.36
3.345
3.33
3.3
3.285
3.245
3.225
3.195
3.175
3.15
3.135
3.11
3.1
3.05
3.075
3.07
3.07
3.065
3.05
3.055
3.065
3.055
3.055
3.055
3.055
3.05
3.05
3.055
3.05
3.03
3.05
3.05
3.045
3.045
3.05
3.05
3.05
3.05
3.05
3.05
3.05
3.035
3.035
3.045
3.05
3.045
3.045
3.03
3.03
3.025
3.03
3.035
3.03
3.025
3.025
3.045
3.045
3.045
3.03
3.03
3.03
3.03
3.025
3.025
3.015
3.03
3.03
3.025
3.015
3.015
3.025
3.025
2.995
3.015
3.015
3.015
3.025
3.03
3.025
3.015
3.015
3.025
3.025
3.03
3.025
3.03
3.025
3.03
3.005
3.025
3.03
3.03
3.025
3.025
3.03
3.03
3.025
3.025
3.03
3.025
3.025
3.025
3.03
3.03
3.025
3.03
3.03
3.03
3.03
3.025
3.045
3.035
3.035
3.025
3.035
3.015
3.03
3.025
3.025
3.03
2.995
2.99
3.005
3.005
2.995
3.035
3.12
3.095
3.05
3.05
3.055
3.03
3.035
2.995
2.995
3.025
3.05
3.03
3.015
2.995
2.975
2.99
2.985
3.005
3.005
3.015
3.005
2.97
2.995
3.01
3.035
3.095
3.18
3.24
3.34
3.4
3.38
3.215
2.84
2.555
2.365
2.365
2.385
2.325
2.43
2.66
2.815
2.92
2.95
2.97
2.99
2.985
2.985
3.015
2.99
3.005
3.015
3.03
3.025
3.03
3.03
3.045
3.03
3.035
3.05
3.05
3.045
3.035
3.05
3.07
3.05
3.07
3.075
3.075
3.09
3.09
3.095
3.095
3.1
3.13
3.135
3.12
3.135
3.135
3.135
3.14
3.155
3.16
3.175
3.18
3.195
3.195
3.205
3.235
3.24
3.255
3.245
3.265
3.285
3.295
3.3
3.315
3.33
3.34
3.34
3.34
3.365
3.37
3.38
3.385
3.39
3.365
3.36
3.38
3.33
3.32
3.295
3.265
3.245
3.225
3.205
3.17
3.15
3.12
3.1
3.075
3.07
3.065
3.055
3.025
3.045
3.03
3.025
3.03
3.045
3.025
3.015
3.025
3.025
3.025
3.005
3.005
3.005
3.005
3.005
2.995
3.01
3.025
3.015
3.015
3.005
3.005
3.015
3.015
3.005
2.995
2.97
3.005
3.01
2.99
2.995
2.995
2.99
2.995
2.995
2.995
2.995
3.025
3.005
2.995
2.985
2.995
2.975
2.995
2.995
2.99
2.995
2.985
2.99
2.985
2.975
2.99
2.985
2.995
2.995
2.995
3.005
2.995
2.985
2.99
2.995
3.005
3.01
3.005
3.005
3.005
3.015
3.01
3.005
3.005
3.005
3.015
3.015
3.01
3.01
3.005
3.01
3.025
3.015
3.015
3.01
3.025
3.025
3.01
3.01
2.99
3.005
3.01
3.015
3.01
2.995
2.97
2.955
2.97
2.965
2.955
2.97
2.985
3.005
2.995
2.985
2.95
2.995
3.025
3.025
3.025
3.025
3.025
3.025
3.005
2.99
2.995
2.995
3.005
3.025
3.045
3.045
3.025
3.015
3.015
3.005
3.015
3.025
3.05
3.12
3.215
3.305
3.39
3.44
3.365
3.065
2.72
2.485
2.39
2.425
2.365
2.365
2.565
2.765
2.91
2.955
2.985
2.995
2.995
2.97
3.005
3.025
3.03
3.035
3.045
3.05
3.055
3.055
3.055
3.05
3.05
3.055
3.065
3.065
3.075
3.055
3.08
3.08
3.09
3.1
3.095
3.1
3.1
3.11
3.12
3.135
3.13
3.135
3.14
3.155
3.155
3.175
3.175
3.19
3.18
3.2
3.2
3.215
3.215
3.235
3.26
3.265
3.295
3.275
3.295
3.3
3.315
3.33
3.345
3.365
3.37
3.39
3.385
3.39
3.39
3.385
3.38
3.385
3.405
3.385
3.38
3.36
3.34
3.305
3.285
3.275
3.255
3.22
3.18
3.17
3.14
3.12
3.1
3.095
3.065
3.07
3.07
3.055
3.05
3.055
3.05
3.03
3.035
3.055
3.05
3.05
3.035
3.035
3.045
3.05
3.03
3.035
3.035
3.05
3.05
3.05
3.05
3.05
3.05
3.055
3.035
3.01
3.035
3.035
3.035
3.03
3.025
3.03
3.045
3.035
3.025
3.03
3.03
3.025
3.025
3.025
3.03
3.005
3.025
3.025
3.015
3.015
3.03
3.025
3.025
3.025
3.03
3.035
3.025
3.015
3.015
3.025
3.025
3.03
3.035
3.035
3.045
3.05
3.045
3.05
3.055
3.05
3.05
3.055
3.045
3.05
3.05
3.065
3.065
3.05
3.05
3.05
3.05
3.05
3.05
3.05
3.055
3.045
3.03
2.995
2.955
2.995
2.995
2.99
2.97
2.995
3.015
3.025
2.99
2.985
3.015
3.025
3.03
3.03
3.025
3.025
2.995
2.995
2.995
2.99
3.005
3.005
3.015
3.025
3.015
3.03
3.03
3.025
3.025
3.015
3.025
3.07
3.13
3.215
3.285
3.38
3.42
3.36
3.095
2.725
2.445
2.325
2.39
2.33
2.325
2.505
2.725
2.885
2.945
2.97
2.99
2.985
2.99
3.005
3.035
3.015
3.025
3.03
3.025
3.005
3.035
3.05
3.05
3.05
3.055
3.065
3.065
3.055
3.065
3.075
3.07
3.075
3.075
3.075
3.08
3.075
3.095
3.1
3.1
3.11
3.12
3.12
3.12
3.135
3.15
3.155
3.175
3.175
3.175
3.2
3.205
3.225
3.215
3.225
3.235
3.255
3.26
3.275
3.275
3.3
3.315
3.32
3.35
3.34
3.35
3.365
3.365
3.37
3.37
3.38
3.38
3.37
3.35
3.345
3.34
3.315
3.28
3.255
3.245
3.215
3.18
3.155
3.115
3.115
3.1
3.08
3.065
3.055
3.05
3.035
3.025
3.03
3.03
3.035
3.03
3.03
3.025
3.03
3.025
3.03
3.025
3.015
3.025
3.03
3.035
3.03
3.025
3.03
3.03
3.03
3.025
3.015
3.025
3.03
3.03
3.03
3.025
3.025
3.025
3.025
3.025
2.995
3.03
3.025
3.025
3.015
3.01
3.025
3.025
3.015
3.005
3.01
3.01
3.01
3.005
3.01
3.01
2.995
2.995
3.005
3.005
2.995
3.005
3.01
3.005
3.005
3.005
3.01
3.015
3.005
3.015
3.015
3.025
3.01
3.01
3.01
3.025
3.03
3.025
3.015
3.025
3.015
3.015
3.025
2.995
3.025
3.025
3.035
3.03
3.015
3.015
3.03
3.03
3.015
3.015
3.035
3.015
3.015
3.015
3.005
2.965
2.955
2.955
2.97
2.955
2.955
2.955
2.99
3.01
2.99
2.965
2.99
3.015
3.01
3.03
3.025
3.025
3.015
2.995
2.995
2.99
2.995
2.99
2.995
3.015
3.01
3.01
3.005
2.99
3.005
3.005
3.01
3.025
3.08
3.16
3.245
3.33
3.36
3.285
3.015
2.7
2.53
2.42
2.45
2.425
2.39
2.545
2.74
2.9
2.945
2.945
2.945
2.955
2.965
2.975
2.985
2.99
2.995
2.995
2.985
3.01
3.015
2.995
3.025
3.025
3.015
3.025
3.025
3.025
3.045
3.045
3.03
3.045
3.05
3.055
3.055
3.055
3.055
3.075
3.075
3.08
3.08
3.09
3.1
3.1
3.115
3.11
3.115
3.135
3.155
3.15
3.155
3.16
3.18
3.18
3.19
3.2
3.215
3.235
3.245
3.265
3.265
3.3
3.3
3.315
3.305
3.325
3.345
3.345
3.365
3.345
3.345
3.345
3.35
3.34
3.315
3.285
3.265
3.26
3.225
3.2
3.17
3.135
3.12
3.095
3.08
3.07
3.055
3.035
3.03
3.025
3.03
3.03
3.025
3.015
3.01
2.995
3.015
3.015
3.01
3.015
3.015
3.025
3.025
3.015
2.975
3.01
3.005
3.015
3.015
2.995
3.01
3.005
3.005
2.995
3.005
3.03
3.005
2.995
2.995
2.995
2.97
2.995
2.995
2.99
3.005
2.99
2.995
2.985
2.995
2.995
3.005
2.995
2.995
2.99
2.985
2.985
2.975
2.97
2.975
2.985
2.995
2.99
2.985
2.985
2.995
2.99
2.99
2.975
2.985
2.995
2.995
2.99
2.975
2.985
2.985
2.995
2.985
2.99
2.99
2.99
2.985
2.975
2.985
2.955
2.995
2.985
2.99
2.99
2.995
2.995
2.995
2.995
2.995
2.995
2.995
2.995
2.995
2.995
3.005
2.975
2.995
2.995
2.995
2.995
2.995
2.995
2.995
2.995
3.005
3.005
2.995
2.995
2.995
2.985
2.985
2.985
2.99
2.985
2.99
2.99
2.99
2.985
2.99
2.99
2.975
2.945
2.925
2.95
2.95
2.93
2.925
2.945
2.97
2.97
2.945
2.94
2.955
2.985
2.99
2.975
2.975
2.995
2.95
2.95
2.945
2.93
2.945
2.955
2.97
2.97
2.965
2.97
2.975
2.965
2.955
2.965
2.975
3.015
3.075
3.175
3.26
3.345
3.35
3.215
2.87
2.6
2.43
2.41
2.42
2.365
2.42
2.64
2.825
2.91
2.91
2.925
2.945
2.945
2.95
2.965
2.97
2.975
2.975
2.985
2.995
2.97
3.015
3.015
3.015
3.01
3.01
3.025
3.015
3.025
3.025
3.03
3.065
3.03
3.045
3.05
3.07
3.035
3.07
3.075
3.075
3.09
3.095
3.1
3.1
3.1
3.12
3.135
3.135
3.15
3.16
3.17
3.18
3.205
3.2
3.205
3.215
3.215
3.225
3.24
3.265
3.275
3.285
3.3
3.305
3.32
3.33
3.34
3.345
3.35
3.365
3.37
3.36
3.345
3.345
3.345
3.34
3.295
3.265
3.225
3.235
3.19
3.16
3.135
3.115
3.09
3.07
3.05
3.045
3.025
3.035
3.025
3.025
3.015
3.025
3.025
2.995
3.015
3.025
3.03
3.03
3.025
3.015
3.015
3.025
3.03
3.015
3.025
3.015
3.015
3.015
3.01
3.005
3.015
3.025
3.015
3.01
3.015
3.015
3.01
3.005
2.995
2.995
2.99
2.995
2.985
2.995
3.005
2.975
2.99
2.99
2.975
2.97
2.975
2.975
2.965
2.965
2.965
2.975
2.965
2.97
2.965
2.97
2.985
2.975
2.985
2.995
2.995
2.995
2.995
2.99
2.985
2.995
2.995
2.995
2.965
2.995
2.995
2.995
3.005
3.005
2.995
3.005
3.005
3.005
2.995
3.005
3.005
3.005
2.995
2.995
3.005
3.015
3.025
3.01
3.015
3.015
3.025
3.015
3.015
3.025
3.025
3.005
3.015
3.005
3.015
3.015
3.015
3.01
3.025
3.015
3.025
3.03
3.05
3.03
3.035
3.035
3.035
3.01
3.035
3.05
3.045
3.035
3.035
3.035
3.025
3.025
3.03
3.05
3.035
3.045
3.045
3.05
3.05
3.03
3.05
3.045
3.045
3.045
3.01
3.005
3.025
3.025
3.015
3.065
3.11
3.1
3.07
3.07
3.065
3.065
3.07
3.055
3.05
3.07
3.07
3.065
3.03
3.025
3.03
3.05
3.025
3.05
3.035
3.05
3.05
3.03
3.03
3.05
3.09
3.175
3.24
3.34
3.42
3.425
3.3
2.965
2.63
2.44
2.43
2.49
2.43
2.485
2.695
2.88
2.97
3.005
3.025
3.015
3.025
3.035
3.05
3.055
3.05
3.065
3.07
3.07
3.075
3.08
3.095
3.09
3.08
3.09
3.11
3.09
3.12
3.12
3.13
3.12
3.12
3.135
3.135
3.14
3.14
3.155
3.16
3.175
3.18
3.18
3.18
3.205
3.195
3.205
3.215
3.215
3.235
3.235
3.24
3.255
3.255
3.26
3.265
3.28
3.3
3.32
3.33
3.36
3.34
3.36
3.365
3.37
3.365
3.39
3.41
3.4
3.405
3.4
3.4
3.405
3.4
3.39
3.37
3.37
3.345
3.32
3.295
3.265
3.255
3.225
3.195
3.17
3.155
3.135
3.1
3.11
3.09
3.09
3.09
3.09
3.08
3.08
3.075
3.07
3.075
3.095
3.075
3.075
3.08
3.07
3.05
3.08
3.09
3.08
3.08
3.075
3.065
3.07
3.075
3.07
3.075
3.065
3.065
3.07
3.05
3.065
3.055
3.065
3.055
3.055
3.055
3.065
3.055
3.055
3.065
3.07
3.065
3.065
3.055
3.055
3.05
3.055
3.055
3.055
3.035
3.05
3.05
3.05
3.05
3.045
3.035
3.05
3.05
3.015
3.045
3.05
3.05
3.055
3.05
3.05
3.05
3.05
3.05
3.05
3.05
3.05
3.05
3.05
3.035
3.015
3.045
3.05
3.05
3.045
3.035
3.025
3.03
3.035
3.035
3.025
3.03
3.035
3.035
3.03
3.045
3.025
3.03
3.03
3.025
3.03
3.045
3.045
3.03
3.025
3.025
3.03
3.005
3.035
3.03
3.03
3.03
3.03
3.035
3.03
3.025
3.03
3.035
3.05
3.03
3.025
3.03
3.035
3.01
3.035
3.035
3.035
3.03
3.03
3.025
3.03
3.035
3.03
3.025
3.015
3.015
3.015
3.025
3.03
3.005
3.005
2.975
2.995
2.995
2.995
3.015
3.075
3.08
3.045
3.035
3.05
3.07
3.055
3.03
3.025
3.025
3.05
3.03
3.015
3.015
3.005
3.005
3.01
3.015
3.025
3.035
3.01
3.025
3.025
3.025
3.035
3.065
3.14
3.215
3.285
3.365
3.34
3.205
2.905
2.655
2.505
2.465
2.49
2.455
2.49
2.69
2.865
2.97
2.97
2.975
2.995
2.995
3.005
3.01
3.015
3.03
3.025
3.045
3.03
3.045
3.05
3.05
3.05
3.045
3.055
3.05
3.065
3.07
3.055
3.055
3.075
3.075
3.07
3.075
3.08
3.1
3.1
3.11
3.11
3.115
3.135
3.12
3.135
3.13
3.15
3.18
3.155
3.155
3.18
3.18
3.205
3.205
3.22
3.225
3.235
3.24
3.26
3.265
3.275
3.295
3.3
3.34
3.32
3.345
3.345
3.35
3.36
3.365
3.37
3.38
3.37
3.365
3.365
3.36
3.34
3.32
3.3
3.28
3.26
3.225
3.195
3.16
3.15
3.135
3.12
3.09
3.07
3.065
3.03
3.05
3.05
3.05
3.045
3.035
3.05
3.025
3.03
3.045
3.045
3.05
3.03
3.025
3.035
3.035
3.015
3.025
3.025
3.025
3.03
3.035
3.03
3.035
3.045
3.045
3.05
3.035
3.025
3.035
3.03
3.025
3.005
3.03
3.015
3.025
3.025
3.025
3.015
3.03
3.015
3.01
3.025
3.015
3.01
3.015
3.01
3.015
3.005
3.015
3.01
3.015
3.01
3.01
2.995
2.995
2.995
3.005
3.005
2.99
2.995
3.005
2.995
3.005
2.995
3.005
3.005
3.005
3.005
3.01
3.005
2.995
3.01
3.01
3.005
2.975
2.995
3.005
3.005
2.995
2.995
2.99
2.995
2.995
2.995
2.995
2.995
2.995
2.995
2.995
2.995
2.99
2.995
3.005
2.995
2.99
3.005
3.005
2.995
3.005
2.995
3.01
3.005
3.005
3.005
3.005
3.005
2.995
2.995
2.995
2.995
3.005
3.01
3.005
3.005
2.995
3.015
3.025
2.985
2.995
3.005
3.015
3.005
3.005
3.005
3.01
3.015
3.015
3.005
3.005
3.005
2.995
3.01
3.01
2.99
2.995
2.995
3.005
2.985
2.965
2.985
3.01
3.015
3.05
3.11
3.11
3.1
3.07
3.035
3.03
3.01
3.005
3.005
3.01
3.05
3.045
3.005
2.965
2.975
2.985
2.995
2.975
2.995
2.985
2.995
2.995
2.995
2.995
3.05
3.14
3.22
3.295
3.365
3.33
3.135
2.785
2.535
2.37
2.42
2.425
2.37
2.475
2.715
2.885
2.955
2.955
2.97
2.985
2.995
3.005
3.015
3.015
3.03
3.025
3.05
3.035
3.045
3.035
3.05
3.05
3.055
3.05
3.055
3.07
3.065
3.07
3.075
3.075
3.09
3.08
3.09
3.095
3.115
3.13
3.12
3.12
3.13
3.135
3.155
3.155
3.19
3.175
3.195
3.19
3.18
3.2
3.215
3.225
3.235
3.24
3.245
3.265
3.28
3.295
3.305
3.32
3.36
3.36
3.35
3.37
3.365
3.38
3.39
3.4
3.4
3.405
3.42
3.42
3.41
3.4
3.38
3.37
3.365
3.33
3.3
3.275
3.26
3.225
3.205
3.175
3.155
3.13
3.12
3.1
3.1
3.1
3.1
3.08
3.075
3.075
3.08
3.08
3.08
3.075
3.07
3.065
3.075
3.075
3.065
3.035
3.07
3.065
3.065
3.05
3.055
3.065
3.07
3.065
3.065
3.065
3.065
3.07
3.07
3.05
3.055
3.045
3.05
3.05
3.05
3.045
3.05
3.055
3.045
3.045
3.035
3.05
3.035
3.025
3.035
3.03
3.035
3.025
3.035
3.03
3.035
3.045
3.025
3.025
3.025
3.025
3.025
3.03
3.005
3.025
3.025
3.025
3.025
3.025
3.035
3.03
3.03
3.025
3.035
3.055
3.03
3.035
3.03
3.03
3.01
3.045
3.035
3.03
3.03
3.03
3.035
3.045
3.045
3.03
3.025
3.03
3.045
3.03
3.035
3.05
3.03
3.05
3.05
3.045
3.05
3.05
3.05
3.045
3.03
3.05
3.05
3.05
3.035
3.035
3.05
3.05
3.035
3.03
3.045
3.045
3.05
3.05
3.05
3.05
3.05
3.05
3.05
3.025
3.05
3.05
3.055
3.055
3.045
3.045
3.045
3.065
3.055
3.055
3.05
3.055
3.055
3.05
3.05
3.035
3.055
3.055
3.05
3.05
3.055
3.045
3.025
3.045
3.08
3.1
3.115
3.16
3.19
3.17
3.12
3.1
3.09
3.065
3.065
3.065
3.05
3.08
3.09
3.065
3.045
3.035
3.05
3.05
3.05
3.045
3.045
3.045
3.05
3.035
3.05
3.11
3.195
3.265
3.345
3.425
3.445
3.34
3.025
2.715
2.47
2.39
2.445
2.39
2.39
2.595
2.815
2.945
3.005
3.025
3.03
3.035
3.045
3.05
3.05
3.08
3.08
3.095
3.09
3.095
3.1
3.09
3.09
3.09
3.11
3.12
3.115
3.1
3.11
3.12
3.12
3.13
3.13
3.14
3.155
3.16
3.175
3.17
3.17
3.18
3.19
3.215
3.205
3.2
3.215
3.215
3.235
3.24
3.245
3.26
3.265
3.265
3.275
3.285
3.315
3.34
3.34
3.365
3.36
3.365
3.38
3.39
3.4
3.425
3.43
3.44
3.44
3.425
3.44
3.45
3.45
3.45
3.45
3.455
3.425
3.4
3.38
3.365
3.33
3.32
3.28
3.255
3.235
3.215
3.2
3.17
3.16
3.16
3.155
3.16
3.155
3.15
3.15
3.135
3.135
3.13
3.135
3.135
3.14
3.135
3.155
3.13
3.135
3.135
3.135
3.15
3.15
3.15
3.14
3.135
3.135
3.14
3.155
3.15
3.13
3.12
3.115
3.12
3.12
3.12
3.12
3.12
3.12
3.115
3.11
3.1
3.11
3.115
3.115
3.11
3.11
3.115
3.1
3.11
3.1
3.1
3.1
3.11
3.1
3.095
3.1
3.1
3.095
3.095
3.1
3.1
3.1
3.095
3.09
3.09
3.1
3.09
3.095
3.09
3.1
3.09
3.1
3.095
3.1
3.08
3.1
3.1
3.1
3.08
3.08
3.09
3.1
3.09
3.09
3.1
3.095
3.08
3.09
3.1
3.08
3.075
3.09
3.1
3.09
3.11
3.11
3.1
3.09
3.09
3.1
3.11
3.09
3.09
3.095
3.1
3.1
3.08
3.095
3.1
3.11
3.09
3.095
3.09
3.095
3.09
3.1
3.1
3.065
3.08
3.075
3.095
3.09
3.08
3.1
3.095
3.075
3.07
3.075
3.1
3.08
3.09
3.08
3.095
3.075
3.095
3.08
3.065
3.075
3.11
3.14
3.155
3.215
3.235
3.225
3.18
3.11
3.07
3.07
3.065
3.055
3.075
3.115
3.12
3.095
3.07
3.05
3.05
3.065
3.065
3.065
3.055
3.055
3.065
3.055
3.075
3.11
3.2
3.28
3.36
3.41
3.37
3.175
2.84
2.59
2.425
2.445
2.47
2.425
2.525
2.745
2.92
2.995
3.015
3.015
3.03
3.025
3.05
3.05
3.055
3.065
3.075
3.09
3.05
3.075
3.075
3.08
3.09
3.095
3.08
3.09
3.1
3.11
3.11
3.1
3.11
3.12
3.115
3.115
3.115
3.14
3.155
3.16
3.16
3.17
3.18
3.19
3.18
3.195
3.2
3.225
3.22
3.225
3.235
3.24
3.265
3.275
3.28
3.3
3.305
3.33
3.34
3.33
3.35
3.37
3.38
3.42
3.4
3.405
3.42
3.425
3.44
3.44
3.43
3.445
3.45
3.445
3.455
3.425
3.41
3.39
3.36
3.365
3.315
3.295
3.275
3.24
3.205
3.2
3.175
3.16
3.15
3.135
3.13
3.12
3.12
3.12
3.115
3.11
3.12
3.115
3.12
3.115
3.115
3.115
3.12
3.11
3.11
3.12
3.095
3.13
3.11
3.11
3.11
3.1
3.1
3.1
3.1
3.11
3.11
3.135
3.095
3.1
3.095
3.1
3.08
3.1
3.075
3.09
3.09
3.1
3.095
3.09
3.08
3.08
3.08
3.07
3.07
3.07
3.07
3.07
3.055
3.075
3.065
3.065
3.065
3.05
3.05
3.055
3.055
3.065
3.055
3.035
3.055
3.05
3.05
3.055
3.05
3.065
3.055
3.055
3.055
3.065
3.055
3.055
3.055
3.05
3.05
3.025
3.055
3.055
3.05
3.055
3.055
3.05
3.05
3.055
3.065
3.07
3.07
3.055
3.065
3.065
3.065
3.035
3.065
3.055
3.05
3.065
3.065
3.05
3.05
3.05
3.055
3.065
3.05
3.055
3.055
3.055
3.05
3.05
3.05
3.065
3.055
3.05
3.05
3.05
3.05
3.05
3.035
3.05
3.025
3.05
3.045
3.05
3.05
3.03
3.03
3.03
3.035
3.035
3.05
3.05
3.035
3.045
3.045
3.05
3.025
3.05
3.065
3.055
3.05
3.075
3.115
3.135
3.155
3.22
3.24
3.2
3.115
3.07
3.05
3.065
3.025
3.055
3.07
3.08
3.08
3.065
3.025
3.015
3.025
3.025
3.03
3.03
3.025
3.025
3.025
3.03
3.025
3.07
3.155
3.225
3.315
3.385
3.385
3.215
2.84
2.575
2.42
2.42
2.45
2.37
2.445
2.69
2.865
2.945
2.97
2.975
2.995
3.01
3.035
3.015
3.025
3.045
3.05
3.025
3.05
3.055
3.05
3.065
3.065
3.055
3.07
3.075
3.075
3.08
3.08
3.095
3.095
3.11
3.11
3.11
3.12
3.13
3.135
3.155
3.155
3.16
3.175
3.17
3.18
3.19
3.205
3.215
3.225
3.225
3.235
3.255
3.265
3.28
3.28
3.3
3.305
3.32
3.34
3.345
3.365
3.37
3.4
3.4
3.4
3.42
3.425
3.43
3.43
3.44
3.44
3.45
3.445
3.44
3.44
3.43
3.425
3.39
3.38
3.345
3.32
3.285
3.26
3.235
3.205
3.2
3.175
3.155
3.15
3.135
3.135
3.115
3.12
3.12
3.12
3.13
3.11
3.11
3.12
3.12
3.12
3.12
3.12
3.11
3.115
3.095
3.12
3.115
3.1
3.11
3.095
3.11
3.12
3.115
3.13
3.12
3.1
3.095
3.1
3.1
3.1
3.075
3.08
3.08
3.08
3.08
3.08
3.1
3.1
3.1
3.08
3.09
3.095
3.1
3.095
3.1
3.08
3.05
3.08
3.08
3.07
3.05
3.05
3.055
3.075
3.09
3.09
3.075
3.075
3.075
3.075
3.065
3.07
3.05
3.065
3.07
3.075
3.095
3.1
3.1
3.065
3.065
3.075
3.09
3.07
3.09
3.07
3.065
3.07
3.065
3.07
3.08
3.075
3.075
3.09
3.1
3.07
3.075
3.075
3.075
3.05
3.07
3.08
3.1
3.1
3.07
3.065
3.08
3.08
3.075
3.075
3.075
3.07
3.075
3.075
3.07
3.065
3.08
3.095
3.075
3.07
3.075
3.075
3.075
3.08
3.08
3.08
3.075
3.055
3.07
3.075
3.09
3.08
3.1
3.08
3.075
3.055
3.07
3.08
3.065
3.065
3.075
3.065
3.025
3.055
3.075
3.08
3.11
3.175
3.18
3.215
3.26
3.24
3.17
3.095
3.05
3.05
3.065
3.065
3.055
3.095
3.1
3.09
3.055
3.035
3.035
3.03
3.025
3.005
3.015
3.05
3.05
3.025
3.025
3.055
3.07
3.155
3.26
3.365
3.43
3.43
3.24
2.86
2.555
2.37
2.405
2.39
2.34
2.42
2.635
2.82
2.92
2.945
2.97
2.975
2.995
3.01
3.03
3.015
3.025
3.05
3.05
3.025
3.035
3.035
3.045
3.055
3.065
3.055
3.05
3.065
3.075
3.07
3.08
3.095
3.095
3.09
3.12
3.12
3.12
3.11
3.11
3.13
3.135
3.15
3.155
3.17
3.17
3.17
3.195
3.2
3.205
3.215
3.235
3.245
3.245
3.24
3.26
3.28
3.265
3.275
3.3
3.33
3.34
3.34
3.385
3.37
3.385
3.38
3.39
3.405
3.41
3.405
3.43
3.44
3.42
3.4
3.39
3.38
3.36
3.32
3.33
3.295
3.265
3.235
3.2
3.195
3.175
3.16
3.16
3.15
3.135
3.115
3.12
3.12
3.1
3.09
3.075
3.095
3.09
3.08
3.095
3.09
3.09
3.08
3.08
3.095
3.1
3.1
3.1
3.095
3.09
3.08
3.08
3.1
3.08
3.075
3.075
3.075
3.08
3.095
3.1
3.08
3.1
3.07
3.08
3.075
3.08
3.08
3.065
3.07
3.07
3.075
3.07
3.075
3.075
3.095
3.08
3.065
3.07
3.05
3.075
3.075
3.065
3.055
3.065
3.075
3.075
3.07
3.055
3.07
3.075
3.07
3.065
3.065
3.075
3.07
3.07
3.065
3.07
3.07
3.065
3.065
3.075
3.075
3.075
3.07
3.045
3.065
3.075
3.07
3.08
3.065
3.08
3.07
3.075
3.065
3.055
3.075
3.065
3.075
3.075
3.075
3.05
3.07
3.075
3.08
3.08
3.08
3.075
3.09
3.08
3.075
3.08
3.08
3.08
3.09
3.08
3.075
3.065
3.095
3.1
3.1
3.09
3.08
3.075
3.08
3.075
3.075
3.09
3.095
3.09
3.075
3.08
3.09
3.1
3.075
3.075
3.12
3.155
3.18
3.225
3.26
3.24
3.205
3.12
3.045
3.07
3.08
3.09
3.1
3.1
3.12
3.09
3.075
3.055
3.055
3.065
3.065
3.065
3.065
3.07
3.045
3.065
3.075
3.11
3.175
3.245
3.345
3.42
3.4
3.28
2.97
2.695
2.505
2.43
2.49
2.44
2.455
2.65
2.845
2.965
3.005
3.015
3.015
3.03
3.045
3.035
3.05
3.055
3.065
3.05
3.05
3.07
3.07
3.075
3.075
3.075
3.08
3.09
3.08
3.095
3.1
3.115
3.12
3.08
3.11
3.12
3.14
3.15
3.155
3.155
3.16
3.155
3.18
3.18
3.19
3.19
3.205
3.225
3.205
3.245
3.26
3.265
3.26
3.235
3.245
3.3
3.34
3.34
3.32
3.345
3.365
3.365
3.37
3.385
3.4
3.425
3.42
3.42
3.425
3.425
3.43
3.43
3.42
3.425
3.425
3.41
3.425
3.39
3.35
3.325
3.32
3.295
3.245
3.235
3.215
3.19
3.16
3.135
3.13
3.12
3.095
3.1
3.08
3.09
3.09
3.1
3.09
3.09
3.09
3.09
3.09
3.09
3.075
3.08
3.1
3.09
3.095
3.1
3.055
3.075
3.08
3.08
3.095
3.095
3.08
3.07
3.065
3.075
3.075
3.075
3.075
3.07
3.075
3.07
3.065
3.07
3.065
3.075
3.075
3.075
3.075
3.065
3.055
3.075
3.065
3.035
3.055
3.065
3.07
3.055
3.05
3.065
3.065
3.075
3.07
3.065
3.075
3.075
3.065
3.065
3.075
3.05
3.065
3.065
3.065
3.055
3.05
3.055
3.07
3.07
3.075
3.07
3.075
3.075
3.075
3.075
3.075
3.075
3.08
3.075
3.07
3.075
3.075
3.08
3.08
3.08
3.08
3.1
3.09
3.08
3.075
3.075
3.075
3.075
3.08
3.08
3.075
3.075
3.08
3.075
3.075
3.08
3.095
3.09
3.07
3.09
3.095
3.09
3.095
3.095
3.095
3.095
3.1
3.1
3.1
3.1
3.1
3.1
3.1
3.1
3.08
3.11
3.1
3.11
3.11
3.095
3.075
3.07
3.055
3.055
3.075
3.1
3.135
3.18
3.215
3.205
3.16
3.12
3.1
3.09
3.09
3.075
3.075
3.11
3.115
3.11
3.1
3.065
3.075
3.08
3.09
3.1
3.08
3.075
3.09
3.095
3.1
3.1
3.15
3.195
3.275
3.36
3.44
3.445
3.28
2.97
2.725
2.58
2.55
2.59
2.525
2.53
2.735
2.925
3.01
3.015
3.03
3.045
3.065
3.05
3.07
3.07
3.075
3.08
3.1
3.1
3.1
3.11
3.115
3.115
3.115
3.12
3.13
3.14
3.13
3.13
3.135
3.135
3.15
3.15
3.155
3.155
3.155
3.175
3.18
3.175
3.215
3.195
3.205
3.215
3.22
3.225
3.225
3.24
3.24
3.255
3.245
3.26
3.265
3.285
3.3
3.315
3.345
3.35
3.36
3.35
3.365
3.37
3.4
3.42
3.405
3.41
3.42
3.425
3.445
3.43
3.43
3.44
3.445
3.44
3.425
3.405
3.385
3.37
3.33
3.3
3.265
3.26
3.235
3.205
3.17
3.175
3.155
3.12
3.1
3.12
3.115
3.1
3.09
3.08
3.07
3.09
3.09
3.09
3.08
3.045
3.075
3.055
3.045
3.045
3.05
3.055
3.05
3.08
3.09
3.09
3.07
3.065
3.05
3.055
3.055
3.05
3.07
3.05
3.05
3.05
3.045
3.045
3.035
3.03
3.025
3.045
3.035
3.045
3.015
3.025
3.03
3.015
3.025
3.025
3.035
3.03
3.015
3.025
3.025
3.035
3.025
3.03
3.01
3.03
3.03
3.035
3.03
3.03
3.025
3.025
3.035
3.035
3.035
3.075
3.035
3.03
3.015
3.005
3.005
3.03
3.03
3.03
3.025
3.025
3.025
3.035
3.045
3.035
3.045
3.035
3.025
3.01
3.01
3.025
3.025
3.05
3.025
3.035
3.055
3.045
3.015
3.025
3.035
3.05
3.025
3.015
3.025
3.015
3.015
3.025
3.015
3.025
3.015
3.025
3.03
3.015
3.015
3.015
3.005
3.025
3.03
2.995
3.01
3.005
3.005
3.005
3.005
3.015
3.01
3.015
3.005
3.005
2.995
2.99
2.945
2.945
2.95
2.93
2.945
2.965
2.99
3.01
2.99
2.975
2.99
3.005
3.01
3.015
2.995
2.995
2.995
2.97
2.975
2.975
2.975
2.975
2.995
3.005
3.015
3.03
3.025
3.015
3.015
3.01
3.015
3.05
3.13
3.205
3.32
3.405
3.34
3.08
2.745
2.57
2.455
2.485
2.465
2.4
2.53
2.755
2.89
2.945
2.93
2.95
2.955
2.975
3.005
3.015
3.015
3.015
3.035
3.03
3.03
3.035
3.035
3.05
3.025
3.05
3.055
3.065
3.075
3.08
3.09
3.08
3.09
3.1
3.11
3.11
3.115
3.135
3.15
3.135
3.12
3.15
3.155
3.155
3.155
3.16
3.175
3.19
3.2
3.205
3.195
3.24
3.235
3.245
3.24
3.245
3.265
3.285
3.295
3.305
3.34
3.32
3.34
3.365
3.37
3.39
3.385
3.42
3.405
3.42
3.405
3.41
3.42
3.42
3.42
3.42
3.38
3.35
3.34
3.305
3.28
3.26
3.24
3.245
3.205
3.195
3.175
3.155
3.13
3.115
3.1
3.1
3.12
3.12
3.115
3.1
3.1
3.09
3.095
3.08
3.095
3.09
3.1
3.11
3.1
3.1
3.095
3.09
3.09
3.11
3.08
3.1
3.075
3.1
3.1
3.08
3.08
3.08
3.075
3.075
3.08
3.065
3.055
3.065
3.07
3.08
3.055
3.075
3.07
3.065
3.065
3.07
3.07
3.07
3.075
3.08
3.08
3.08
3.055
3.055
3.07
3.075
3.065
3.075
3.08
3.075
3.075
3.065
3.075
3.075
3.075
3.065
3.055
3.065
3.075
3.09
3.1
3.08
3.075
3.08
3.075
3.08
3.09
3.075
3.075
3.09
3.095
3.09
3.09
3.065
3.08
3.075
3.07
3.08
3.075
3.075
3.075
3.1
3.095
3.095
3.08
3.075
3.09
3.08
3.1
3.07
3.08
3.075
3.075
3.095
3.08
3.075
3.08
3.09
3.095
3.09
3.08
3.09
3.09
3.1
3.1
3.08
3.095
3.1
3.1
3.1
3.08
3.075
3.08
3.075
3.05
3.045
3.005
3.025
3.025
3.03
3.05
3.05
3.025
3.025
3.045
3.05
3.055
3.08
3.05
3.05
3.05
3.05
3.03
3.035
3.05
3.055
3.065
3.075
3.065
3.065
3.055
3.05
3.055
3.05
3.07
3.12
3.205
3.285
3.385
3.43
3.45
3.325
2.985
2.62
2.37
2.35
2.39
2.345
2.39
2.635
2.83
2.95
3.025
3.05
3.045
3.035
3.05
3.065
3.08
3.09
3.08
3.095
3.095
3.11
3.1
3.075
3.1
3.115
3.115
3.12
3.13
3.14
3.13
3.12
3.15
3.16
3.15
3.155
3.155
3.15
3.155
3.19
3.155
3.17
3.18
3.19
3.18
3.2
3.215
3.235
3.24
3.235
3.235
3.235
3.255
3.265
3.26
3.28
3.285
3.3
3.315
3.33
3.34
3.345
3.365
3.365
3.365
3.38
3.405
3.405
3.42
3.405
3.385
3.4
3.41
3.42
3.41
3.4
3.37
3.37
3.34
3.305
3.275
3.26
3.265
3.215
3.18
3.155
3.14
3.12
3.115
3.12
3.1
3.1
3.095
3.11
3.11
3.1
3.08
3.08
3.065
3.075
3.065
3.075
3.08
3.08
3.075
3.07
3.075
3.095
3.075
3.075
3.075
3.075
3.075
3.075
3.065
3.055
3.055
3.065
3.07
3.075
3.065
3.065
3.07
3.055
3.07
3.03
3.055
3.05
3.05
3.05
3.045
3.05
3.05
3.05
3.035
3.035
3.07
3.045
3.035
3.03
3.03
3.015
3.035
3.03
3.025
3.03
3.035
3.035
3.015
3.025
3.035
3.045
3.03
3.035
3.05
3.05
3.045
3.01
3.015
3.025
3.025
3.03
3.05
3.05
3.05
3.035
3.03
3.035
3.03
3.045
3.05
3.05
3.045
3.03
3.045
3.05
3.035
3.035
3.035
3.05
3.05
3.035
3.03
3.05
3.03
3.05
3.055
3.055
3.05
3.035
3.045
3.045
3.05
3.05
3.05
3.05
3.05
3.045
3.035
3.05
3.035
3.05
3.05
3.055
3.055
3.065
3.05
3.05
3.05
3.065
3.05
3.05
3.045
3.045
3.035
2.995
2.975
2.995
2.985
2.97
2.97
2.99
2.995
2.985
2.975
2.985
3.01
3.01
3.025
3.015
3.015
3.01
2.985
2.995
2.995
2.985
2.995
3.025
3.035
3.035
3.035
3.03
3.035
3.005
3.035
3.05
3.065
3.14
3.2
3.28
3.365
3.39
3.28
3.01
2.7
2.505
2.39
2.45
2.43
2.425
2.62
2.805
2.945
2.97
2.97
2.975
2.995
3.005
3.015
3.025
3.03
3.05
3.05
3.065
3.07
3.055
3.07
3.055
3.07
3.055
3.065
3.07
3.07
3.075
3.075
3.075
3.055
3.09
3.09
3.095
3.1
3.1
3.12
3.135
3.13
3.12
3.14
3.18
3.155
3.16
3.155
3.17
3.215
3.205
3.205
3.205
3.215
3.22
3.235
3.24
3.255
3.255
3.275
3.295
3.3
3.32
3.34
3.34
3.365
3.365
3.37
3.385
3.385
3.38
3.39
3.39
3.38
3.365
3.345
3.34
3.33
3.315
3.285
3.26
3.235
3.215
3.19
3.175
3.155
3.12
3.1
3.095
3.07
3.075
3.065
3.035
3.055
3.05
3.05
3.055
3.055
3.055
3.05
3.05
3.035
3.05
3.045
3.03
3.03
3.035
3.05
3.025
3.03
3.03
3.035
3.055
3.055
3.05
3.035
3.045
3.05
3.05
3.03
3.03
3.03
3.035
3.045
3.03
3.045
3.025
3.025
3.025
3.045
3.025
3.015
3.025
3.025
3.03
3.015
3.015
3.015
3.01
3.015
3.01
3.025
3.015
3.015
3.015
3.015
3.015
3.015
3.025
3.015
3.01
2.985
3.005
3.01
3.005
3.005
3.015
3.015
3.025
3.015
3.005
3.015
3.015
3.015
3.005
3.005
3.025
2.995
3.025
3.01
3.005
3.015
3.005
2.995
3.01
3.015
3.01
3.01
3.005
2.995
3.005
3.005
3.015
2.995
3.025
3.03
3.03
3.025
3.025
3.015
3.005
3.01
3.01
3.01
2.995
3.015
3.01
3.005
3.01
2.995
3.015
3.015
3.01
3.015
3.01
3.045
3.015
3.015
3.005
3.01
2.995
3.025
3.015
3.01
3.01
3.015
3.01
3.005
2.995
2.995
3.015
3.015
2.995
2.985
2.995
2.99
2.95
2.945
2.945
2.94
2.94
2.95
2.985
2.985
2.97
2.945
2.965
2.97
2.995
2.995
2.985
3.005
2.995
2.975
2.975
2.97
2.97
2.975
2.975
2.995
3.005
3.005
2.995
2.97
2.995
3.005
3.005
3.025
3.075
3.17
3.255
3.345
3.38
3.32
3.055
2.72
2.49
2.35
2.405
2.365
2.34
2.47
2.7
2.85
2.93
2.945
2.965
2.965
2.975
2.99
2.995
3.005
3.005
3.015
3.025
3.015
3.015
3.025
3.025
3.045
3.045
3.045
3.055
3.07
3.05
3.07
3.05
3.07
3.07
3.09
3.095
3.07
3.08
3.09
3.1
3.11
3.11
3.115
3.12
3.135
3.155
3.16
3.18
3.16
3.18
3.18
3.19
3.19
3.2
3.205
3.225
3.225
3.235
3.245
3.26
3.28
3.285
3.32
3.34
3.325
3.34
3.34
3.345
3.345
3.37
3.365
3.365
3.365
3.38
3.385
3.385
3.37
3.36
3.345
3.33
3.295
3.265
3.245
3.235
3.205
3.18
3.15
3.115
3.1
3.1
3.065
3.075
3.055
3.05
3.05
3.05
3.045
3.025
3.025
3.045
3.055
3.065
3.05
3.035
3.045
3.05
3.015
3.045
3.05
3.05
3.045
3.05
3.035
3.03
3.05
3.05
3.035
3.035
3.035
3.045
3.035
3.035
3.03
3.045
3.05
3.05
3.05
3.035
3.03
3.03
3.025
3.01
3.03
3.03
3.025
3.015
3.005
3.01
3.01
3.005
3.005
3.01
3.015
3.015
3.015
2.995
2.995
3.025
3.03
2.995
2.995
3.01
3.015
3.01
2.99
3.015
3.01
3.005
3.01
3.025
3.025
3.01
3.015
3.015
3.03
2.995
3.015
3.03
3.035
3.015
3.005
3.005
3.015
3.025
3.025
3.03
3.03
3.015
3.025
3.025
3.015
3.005
3.015
3.025
3.03
3.015
3.005
3.025
3.025
3.035
3.025
3.035
3.025
3.035
3.025
3.01
3.005
3.005
3.025
3.025
3.025
3.03
3.05
3.07
3.035
3.015
3.03
3.035
3.015
3.035
3.035
3.035
3.05
3.05
3.025
3.01
3.025
3.045
3.045
3.03
3.03
3.03
3.03
3.035
2.99
2.975
2.975
2.995
2.995
3.005
3.025
3.025
3.025
3.005
2.975
2.995
3.015
3.025
3.025
3.005
3.015
3.03
3.015
2.995
2.995
3.01
3.025
3.035
3.035
3.045
3.035
3.015
3.05
3.05
3.035
3.05
3.1
3.19
3.265
3.33
3.4
3.39
3.265
2.925
2.575
2.33
2.315
2.37
2.34
2.385
2.6
2.805
2.94
2.995
3.025
3.015
3.025
3.025
3.035
3.055
3.055
3.055
3.09
3.07
3.07
3.07
3.095
3.095
3.08
3.1
3.1
3.08
3.08
3.1
3.1
3.11
3.115
3.115
3.12
3.12
3.14
3.155
3.14
3.14
3.155
3.16
3.16
3.18
3.19
3.19
3.225
3.2
3.225
3.235
3.235
3.245
3.245
3.26
3.245
3.26
3.265
3.285
3.305
3.315
3.32
3.32
3.345
3.34
3.35
3.36
3.37
3.37
3.38
3.38
3.385
3.4
3.39
3.38
3.36
3.34
3.325
3.315
3.295
3.265
3.235
3.205
3.18
3.16
3.14
3.115
3.1
3.095
3.075
3.045
3.05
3.05
3.055
3.065
3.07
3.065
3.065
3.05
3.05
3.055
3.08
3.055
3.045
3.045
3.055
3.025
3.05
3.055
3.065
3.065
3.07
3.05
3.035
3.025
3.025
3.05
3.05
3.035
3.045
3.05
3.055
3.025
3.05
3.05
3.055
3.05
3.03
3.025
3.03
3.03
3.035
3.035
3.035
3.05
3.035
3.035
3.05
3.03
3.03
3.025
3.03
3.025
3.025
3.015
3.025
3.015
3.015
3.015
3.01
3.035
3.035
3.035
3.03
3.045
3.035
3.03
3.025
3.015
3.03
3.025
3.025
3.025
3.025
3.045
3.015
3.03
3.025
3.03
3.035
3.03
3.015
3.015
3.025
3.025
3.03
3.03
3.03
3.035
3.025
3.03
3.025
3.045
3.045
3.045
3.035
3.035
3.035
3.035
3.045
3.035
3.035
3.035
3.03
3.05
3.03
3.035
3.035
3.05
3.045
3.03
3.025
3.015
3.03
3.03
3.03
3.015
3.025
3.005
3.035
3.03
3.025
3.025
3.035
3.05
3.03
3.015
2.99
2.975
2.97
2.97
2.95
2.955
2.985
2.975
2.975
2.95
2.945
2.99
3.015
3.015
3.025
3.01
3.03
3.015
2.995
2.995
2.985
2.975
3.015
3.01
3.025
3.03
3.025
3.03
3.045
3.03
3.03
3.015
3.025
3.09
3.18
3.235
3.34
3.405
3.39
3.215
2.85
2.63
2.485
2.45
2.49
2.45
2.495
2.705
2.865
2.95
2.945
2.965
2.975
2.995
2.995
3.005
3.025
3.015
3.025
3.03
3.045
3.05
3.045
3.035
3.05
3.05
3.045
3.05
3.055
3.055
3.065
3.065
3.055
3.065
3.065
3.075
3.08
3.08
3.08
3.075
3.09
3.1
3.1
3.11
3.11
3.11
3.12
3.135
3.15
3.155
3.16
3.155
3.16
3.205
3.205
3.205
3.215
3.235
3.265
3.255
3.255
3.285
3.275
3.28
3.3
3.305
3.32
3.325
3.325
3.365
3.34
3.35
3.345
3.345
3.34
3.33
3.32
3.3
3.265
3.245
3.235
3.225
3.19
3.155
3.12
3.1
3.1
3.07
3.055
3.05
3.035
3.035
3.025
3.015
3.025
3.015
3.015
3.015
3.01
3.01
3.015
3.005
2.995
2.995
2.995
3.01
3.005
2.995
2.99
2.985
2.995
2.995
2.965
2.985
2.995
3.005
2.995
2.995
2.995
2.995
2.995
2.995
2.995
2.975
2.99
2.995
2.99
2.995
2.975
2.995
2.985
2.985
2.985
2.985
2.985
2.99
2.985
2.975
2.975
2.975
2.975
2.97
2.97
2.975
2.965
2.975
2.97
2.97
2.97
2.97
2.95
2.97
2.97
2.955
2.97
2.95
2.965
2.965
2.975
2.975
2.97
2.97
2.985
2.995
2.99
2.975
2.99
2.975
2.975
2.99
2.995
2.97
2.985
2.995
2.995
2.985
2.99
2.995
2.995
3.005
3.005
3.005
2.995
3.005
3.01
3.005
3.015
2.995
3.015
3.015
3.015
3.025
3.03
3.015
3.015
3.015
3.015
3.015
3.015
3.025
3.025
3.025
3.025
3.025
3.015
3.01
3.03
3.025
3.025
3.015
3.015
3.015
3.015
3.015
2.985
3.025
3.03
3.01
3.005
3.01
3.015
3.005
2.995
2.97
2.965
2.975
2.975
2.965
2.965
2.995
2.975
2.99
2.97
2.97
2.995
3.005
3.015
3.005
2.995
2.995
2.975
2.975
2.975
2.97
2.995
2.995
3.005
3.025
3.015
3.01
3.015
3.015
3.015
3.025
3.055
3.12
3.2
3.285
3.37
3.37
3.2
2.86
2.6
2.45
2.41
2.455
2.425
2.485
2.7
2.87
2.95
2.95
2.965
2.965
3.005
3.015
3.025
3.03
3.03
3.045
3.05
3.055
3.055
3.07
3.07
3.08
3.075
3.075
3.075
3.065
3.1
3.11
3.1
3.11
3.115
3.12
3.12
3.12
3.13
3.135
3.12
3.14
3.135
3.15
3.155
3.175
3.18
3.19
3.19
3.205
3.205
3.225
3.225
3.235
3.24
3.245
3.275
3.265
3.28
3.295
3.315
3.34
3.34
3.35
3.365
3.385
3.39
3.385
3.385
3.405
3.42
3.41
3.425
3.42
3.42
3.42
3.4
3.39
3.38
3.37
3.345
3.32
3.28
3.245
3.235
3.205
3.18
3.155
3.15
3.12
3.1
3.1
3.1
3.08
3.095
3.08
3.07
3.075
3.08
3.08
3.07
3.065
3.065
3.065
3.065
3.075
3.075
3.075
3.08
3.08
3.075
3.065
3.07
3.07
3.075
3.05
3.065
3.055
3.065
3.07
3.055
3.05
3.055
3.07
3.055
3.05
3.05
3.055
3.055
3.05
3.055
3.03
3.055
3.055
3.055
3.055
3.05
3.045
3.045
3.05
3.05
3.035
3.035
3.045
3.05
3.035
3.035
3.035
3.045
3.03
3.025
3.03
3.025
3.03
3.03
3.035
3.05
3.065
3.05
3.03
3.025
3.05
3.035
3.03
3.035
3.03
3.03
3.035
3.03
3.025
3.015
3.03
3.035
3.05
3.015
3.03
3.025
3.025
3.045
3.03
3.03
3.025
3.035
3.035
3.035
3.05
3.05
3.05
3.05
3.05
3.01
3.035
3.05
3.05
3.03
3.03
3.035
3.05
3.035
3.045
3.05
3.05
3.05
3.05
3.045
3.05
3.035
3.055
3.05
3.05
3.055
3.05
3.035
3.05
3.035
3.03
3.035
3.015
3.035
3.035
3.045
3.035
3.035
3.025
3.005
2.995
3.025
3.025
3.035
3.035
3.07
3.075
3.07
3.015
3.05
3.065
3.045
3.03
3.025
3.03
3.05
3.035
3.03
3.025
3.025
3.045
3.035
3.045
3.055
3.035
3.035
3.035
3.055
3.05
3.05
3.1
3.16
3.245
3.34
3.425
3.45
3.4
3.115
2.765
2.505
2.42
2.47
2.425
2.425
2.6
2.825
2.955
3.005
3.025
3.035
3.055
3.05
3.075
3.075
3.09
3.1
3.09
3.1
3.1
3.11
3.11
3.1
3.095
3.11
3.135
3.12
3.135
3.12
3.135
3.13
3.135
3.15
3.155
3.155
3.155
3.155
3.16
3.16
3.17
3.17
3.175
3.18
3.205
3.235
3.225
3.205
3.205
3.235
3.26
3.26
3.26
3.265
3.275
3.285
3.32
3.315
3.325
3.345
3.36
3.385
3.37
3.365
3.385
3.405
3.4
3.405
3.41
3.42
3.43
3.42
3.44
3.42
3.41
3.39
3.365
3.33
3.34
3.315
3.28
3.24
3.215
3.205
3.18
3.175
3.155
3.13
3.1
3.11
3.11
3.095
3.095
3.095
3.09
3.095
3.08
3.075
3.08
3.075
3.095
3.09
3.075
3.075
3.075
3.08
3.095
3.095
3.09
3.08
3.08
3.075
3.08
3.07
3.07
3.05
3.07
3.075
3.075
3.075
3.07
3.07
3.075
3.08
3.075
3.08
3.09
3.065
3.075
3.065
3.05
3.045
3.075
3.08
3.065
3.055
3.07
3.07
3.05
3.035
3.035
3.05
3.07
3.08
3.07
3.065
3.055
3.05
3.065
3.065
3.05
3.05
3.05
3.045
3.035
3.035
3.035
3.03
3.015
3.03
3.05
3.065
3.05
3.015
3.025
3.07
3.055
3.025
3.015
3.03
3.065
3.05
3.05
3.065
3.025
3.025
2.995
2.97
2.945
2.91
2.97
3.025
3.075
3.05
3.015
3.025
3.045
3.045
3.035
3.03
2.985
2.995
2.995
3.005
3.005
3.005
2.995
3.005
3.01
2.995
2.99
2.965
2.945
2.95
2.97
2.97
2.955
2.955
2.97
2.97
2.955
2.97
2.975
2.965
2.945
2.92
2.885
2.865
2.925
2.975
2.94
2.93
2.97
2.99
2.945
2.945
2.95
2.965
2.995
2.97
2.945
2.945
2.95
2.92
2.955
2.975
2.995
3.025
3.01
2.975
2.955
2.97
2.985
3.015
3.05
3.1
3.155
3.205
3.305
3.345
3.155
2.815
2.595
2.45
2.405
2.525
2.49
2.525
2.735
2.885
2.945
2.95
2.945
2.95
2.975
2.955
2.955
2.985
3.01
2.975
2.99
2.99
3.03
3.05
3.05
3.035
3.005
3.025
3.025
2.995
3.005
2.995
3.015
3.055
3.065
3.065
3.065
3.095
3.07
3.065
3.08
3.075
3.045
3.05
3.1
3.14
3.135
3.12
3.12
3.135
3.12
3.135
3.155
3.155
3.18
3.205
3.215
3.215
3.235
3.235
3.24
3.26
3.265
3.265
3.285
3.295
3.285
3.275
3.295
3.35
3.385
3.365
3.35
3.34
3.33
3.33
3.305
3.265
3.24
3.215
3.215
3.22
3.195
3.155
3.11
3.075
3.08
3.075
3.065
3.05
3.055
3.1
3.09
3.065
3.055
3.055
3.05
3.05
3.035
3.035
3.035
3.025
3.05
3.05
3.055
3.05
3.05
3.045
3.025
3.03
3.025
3.03
3.03
3.05
3.035
3.035
3.025
3.005
3.01
3.015
3.015
3.025
3.025
3.025
3.025
3.025
3.025
3.015
2.995
2.995
2.995
2.965
2.955
2.955
2.97
2.995
3.05
3.015
2.985
2.99
2.97
2.985
2.99
2.99
2.995
3.015
3.015
3.005
2.995
2.995
3.01
3.01
3.005
2.995
2.99
2.975
2.97
2.97
2.995
3.015
2.995
2.995
3.005
2.99
2.975
2.975
2.985
2.995
2.995
2.99
2.99
2.985
3.005
3.015
2.99
2.975
3.005
3.005
2.995
3.005
3.005
2.995
3.005
2.995
2.995
2.995
3.015
2.975
2.995
2.985
3.01
3.035
3.01
2.995
2.975
2.965
2.985
2.995
3.025
3.035
3.015
2.995
2.975
2.955
2.975
3.01
3.01
3.015
2.995
2.975
2.945
2.945
2.93
2.91
2.905
2.93
2.965
2.985
2.97
2.95
2.97
2.97
2.985
2.985
3.005
3.025
2.975
2.97
2.975
2.965
2.97
2.975
2.945
2.925
2.95
3.03
3.07
3.03
3.015
3.035
3.055
3.1
3.17
3.245
3.34
3.34
3.205
2.87
2.635
2.47
2.465
2.485
2.45
2.55
2.765
2.91
2.95
2.93
2.945
2.975
2.985
2.995
3.005
3.025
3.015
3.03
3.025
3.025
3.015
3.015
3.025
3.03
3.045
3.035
3.045
3.03
3.03
3.035
3.045
3.045
3.025
3.03
3.05
3.03
3.015
3.035
3.075
3.12
3.13
3.08
3.11
3.12
3.115
3.13
3.12
3.135
3.155
3.155
3.16
3.17
3.18
3.19
3.195
3.175
3.175
3.205
3.235
3.265
3.285
3.315
3.32
3.34
3.33
3.34
3.33
3.34
3.325
3.34
3.345
3.35
3.345
3.345
3.32
3.295
3.275
3.235
3.2
3.19
3.195
3.175
3.135
3.115
3.09
3.1
3.09
3.075
3.065
3.05
3.065
3.065
3.065
3.055
3.055
3.055
3.05
3.05
3.05
3.055
3.015
3.05
3.075
3.075
3.065
3.05
3.07
3.065
3.05
3.05
3.05
3.075
3.08
3.075
3.055
3.065
3.03
3.055
3.055
3.05
3.05
3.05
3.05
3.055
3.055
3.065
3.065
3.035
3.015
3.015
3.025
3.07
3.075
3.075
3.055
3.07
3.07
3.05
3.045
3.05
3.05
3.035
3.05
3.055
3.05
3.07
3.07
3.065
3.05
3.055
3.065
3.045
3.015
3.01
3.05
3.1
3.1
3.075
3.065
3.03
3.065
3.05
3.05
3.035
3.03
3.035
3.075
3.095
3.08
3.08
3.08
3.07
3.075
3.075
3.065
3.045
3.055
3.055
3.065
3.07
3.05
3.05
3.05
3.05
3.05
3.055
3.07
3.075
3.05
3.065
3.1
3.09
3.08
3.075
3.08
3.08
3.075
3.075
3.09
3.09
3.075
3.075
3.055
3.075
3.055
3.025
3.01
3.025
3.03
3.015
2.995
3.005
3.03
3.05
3.015
3.03
3.1
3.1
3.075
3.09
3.09
3.075
3.07
3.065
3.055
3.05
3.065
3.075
3.09
3.08
3.08
3.075
3.09
3.075
3.065
3.095
3.12
3.205
3.275
3.345
3.42
3.45
3.37
3.03
2.705
2.465
2.41
2.47
2.465
2.535
2.735
2.905
3.025
3.07
3.075
3.065
3.07
3.09
3.095
3.095
3.1
3.075
3.11
3.11
3.12
3.12
3.12
3.135
3.135
3.14
3.14
3.135
3.135
3.135
3.14
3.155
3.14
3.18
3.16
3.175
3.195
3.19
3.19
3.205
3.205
3.225
3.22
3.22
3.215
3.205
3.225
3.26
3.285
3.295
3.295
3.295
3.3
3.305
3.315
3.34
3.345
3.345
3.36
3.365
3.38
3.39
3.425
3.405
3.385
3.39
3.43
3.485
3.475
3.485
3.475
3.47
3.455
3.43
3.42
3.39
3.39
3.36
3.325
3.285
3.24
3.22
3.2
3.175
3.155
3.155
3.155
3.155
3.155
3.14
3.135
3.135
3.11
3.12
3.1
3.09
3.1
3.115
3.14
3.13
3.12
3.13
3.15
3.14
3.13
3.12
3.135
3.135
3.115
3.11
3.12
3.11
3.09
3.09
3.11
3.12
3.14
3.13
3.13
3.11
3.12
3.115
3.12
3.115
3.115
3.115
3.115
3.115
3.115
3.1
3.12
3.11
3.115
3.12
3.115
3.09
3.13
3.135
3.15
3.14
3.13
3.115
3.115
3.1
3.11
3.12
3.12
3.12
3.12
3.135
3.13
3.11
3.12
3.1
3.11
3.11
3.13
3.155
3.13
3.14
3.135
3.12
3.11
3.115
3.155
3.155
3.13
3.135
3.135
3.13
3.135
3.15
3.155
3.135
3.135
3.13
3.13
3.135
3.11
3.12
3.115
3.11
3.095
3.11
3.195
3.19
3.15
3.15
3.15
3.155
3.135
3.155
3.155
3.15
3.17
3.155
3.14
3.135
3.13
3.135
3.135
3.12
3.095
3.1
3.1
3.08
3.07
3.11
3.135
3.135
3.11
3.095
3.08
3.1
3.115
3.13
3.12
3.115
3.12
3.11
3.1
3.1
3.1
3.11
3.12
3.12
3.12
3.13
3.12
3.115
3.11
3.11
3.115
3.175
3.225
3.295
3.36
3.445
3.47
3.47
3.285
2.91
2.58
2.4
2.47
2.49
2.445
2.59
2.805
2.925
3.025
3.09
3.115
3.08
3.11
3.135
3.14
3.14
3.15
3.15
3.155
3.14
3.135
3.14
3.155
3.18
3.2
3.2
3.175
3.155
3.15
3.175
3.195
3.205
3.205
3.205
3.225
3.225
3.22
3.205
3.235
3.22
3.235
3.24
3.245
3.26
3.28
3.295
3.28
3.275
3.275
3.285
3.3
3.32
3.32
3.32
3.345
3.34
3.365
3.37
3.37
3.42
3.44
3.44
3.43
3.43
3.445
3.45
3.45
3.465
3.47
3.465
3.475
3.455
3.45
3.44
3.42
3.38
3.345
3.315
3.285
3.26
3.265
3.235
3.205
3.2
3.19
3.17
3.155
3.13
3.12
3.13
3.14
3.14
3.115
3.1
3.1
3.115
3.15
3.115
3.12
3.115
3.115
3.11
3.1
3.1
3.11
3.13
3.12
3.11
3.115
3.12
3.13
3.13
3.12
3.09
3.1
3.095
3.09
3.11
3.1
3.09
3.1
3.115
3.115
3.1
3.08
3.08
3.09
3.09
3.1
3.075
3.09
3.1
3.095
3.09
3.09
3.095
3.1
3.08
3.07
3.05
3.035
3.055
3.065
3.095
3.095
3.075
3.075
3.07
3.035
3.035
3.065
3.1
3.1
3.075
3.075
3.075
3.035
3.065
3.065
3.065
3.065
3.055
3.05
3.05
3.065
3.07
3.07
3.055
3.05
3.05
3.05
3.045
3.035
3.07
3.075
3.05
3.045
3.045
3.055
3.075
3.05
3.045
3.03
3.025
3.045
3.065
3.05
3.045
3.045
3.05
3.035
3.035
3.05
3.035
3.025
3.045
3.05
3.045
3.035
2.99
2.975
2.97
2.965
2.97
2.99
3.005
3.005
2.995
2.975
2.975
3.015
2.995
3.01
2.995
2.975
2.97
3.005
3.005
2.995
2.965
2.975
3.015
3.015
3.025
3.025
3.035
3.025
3.025
3.01
3.01
3.045
3.09
3.18
3.245
3.32
3.36
3.305
3.035
2.72
2.485
2.4
2.49
2.45
2.405
2.565
2.765
2.905
2.945
2.975
2.975
2.995
2.995
2.995
2.995
2.995
2.995
3.025
3.055
3.03
3.035
3.035
3.035
3.045
3.025
3.05
3.07
3.08
3.08
3.065
3.07
3.09
3.08
3.075
3.08
3.065
3.1
3.115
3.1
3.11
3.1
3.11
3.11
3.135
3.135
3.15
3.16
3.155
3.155
3.17
3.195
3.205
3.205
3.2
3.225
3.24
3.24
3.26
3.26
3.275
3.295
3.305
3.32
3.315
3.315
3.33
3.32
3.325
3.315
3.315
3.32
3.34
3.345
3.325
3.295
3.26
3.225
3.205
3.225
3.18
3.14
3.12
3.11
3.075
3.065
3.05
3.05
3.05
3.03
3.025
3.025
3.015
2.995
2.995
2.985
3.015
3.015
3.005
2.995
3.005
3.015
3.035
3.035
3.035
3.025
3.025
3.025
3.015
3.005
3.015
3.005
3.005
2.995
3.015
3.005
3.015
3.025
3.025
3.015
2.995
2.995
2.97
2.99
2.995
2.985
2.995
3.015
3.025
3.015
3.005
2.995
3.005
3.025
2.995
2.975
2.995
3.005
2.97
2.99
2.99
2.975
2.97
2.985
2.995
2.985
2.985
2.985
2.995
3.005
3.025
2.995
2.985
2.985
2.99
2.995
2.995
2.99
2.99
2.97
2.965
2.97
2.975
2.995
3.01
2.995
2.99
2.995
2.99
2.975
2.97
2.97
3.005
2.995
2.985
2.99
2.995
2.975
2.97
2.975
2.975
2.95
2.975
2.99
2.975
2.95
2.945
2.975
2.995
2.97
2.97
2.99
3.025
2.995
2.995
2.985
2.995
2.97
2.975
2.97
2.985
2.975
2.97
2.95
2.91
2.89
2.905
2.92
2.91
2.92
2.945
2.955
2.965
2.91
2.885
2.91
2.93
2.965
2.99
2.975
2.975
2.955
2.95
2.94
2.94
2.92
2.91
2.94
2.945
2.955
2.97
2.97
2.97
2.95
2.945
2.95
2.99
3.065
3.13
3.19
3.305
3.34
3.255
2.955
2.695
2.495
2.385
2.43
2.41
2.39
2.565
2.765
2.85
2.86
2.87
2.94
2.93
2.945
2.955
2.965
2.955
2.97
2.97
2.965
2.975
2.965
2.975
2.99
2.995
2.985
2.995
2.995
2.985
2.995
3.015
3.015
3.01
3.01
3.025
3.035
3.015
3.015
3.025
2.99
3.035
3.09
3.09
3.075
3.07
3.075
3.08
3.095
3.12
3.1
3.135
3.13
3.14
3.15
3.155
3.19
3.16
3.175
3.195
3.205
3.215
3.225
3.235
3.265
3.295
3.3
3.315
3.275
3.26
3.265
3.28
3.295
3.295
3.32
3.285
3.225
3.19
3.175
3.19
3.2
3.155
3.11
3.07
3.075
3.065
3.025
3.015
2.99
2.995
2.995
2.985
2.975
2.955
2.965
2.945
2.945
2.965
2.99
2.97
2.99
2.985
2.97
2.975
2.965
2.985
2.97
2.945
2.94
2.975
2.975
2.965
2.95
2.965
2.995
2.97
2.97
2.975
2.97
2.97
2.975
2.975
2.97
2.97
2.955
2.95
2.955
2.965
2.95
2.945
2.965
2.97
2.975
2.975
2.965
2.965
2.95
2.945
2.975
2.975
2.97
2.97
2.95
2.97
2.965
2.975
2.985
2.985
3.005
2.975
2.945
2.955
3.005
3.015
2.995
2.975
2.965
2.985
2.955
2.97
2.955
2.97
2.99
3.025
3.015
2.995
2.995
3.01
2.995
2.995
3.005
3.015
2.995
2.995
2.97
3.015
3.015
3.005
2.99
2.955
2.955
2.965
2.975
2.995
2.975
2.965
3.01
3.055
3.035
3.025
3.015
3.01
3.025
3.025
3.025
3.005
2.995
2.995
2.97
2.955
2.97
2.995
3.035
2.99
2.965
2.97
2.975
2.97
2.95
2.97
3.005
3.03
2.995
2.965
2.965
2.99
3.005
2.965
2.975
3.01
3.025
2.995
2.985
2.955
2.94
2.93
2.97
3.025
3.055
3.075
3.05
3.045
3.025
2.995
3.03
3.05
3.095
3.155
3.2
3.305
3.37
3.235
2.945
2.635
2.39
2.34
2.43
2.345
2.345
2.59
2.885
2.965
2.97
3.005
2.99
2.99
3.01
3.05
3.045
3.025
3.025
3.025
3.01
3.035
3.11
3.09
3.055
3.05
3.065
3.03
3.015
3.03
3.05
3.055
3.035
3.05
3.11
3.135
3.09
3.13
3.135
3.155
3.14
3.12
3.155
3.17
3.155
3.16
3.16
3.155
3.15
3.175
3.205
3.205
3.205
3.205
3.2
3.225
3.225
3.215
3.215
3.215
3.24
3.3
3.34
3.34
3.32
3.32
3.34
3.34
3.315
3.33
3.345
3.34
3.34
3.32
3.325
3.315
3.275
3.285
3.24
3.225
3.2
3.19
3.175
3.135
3.11
3.11
3.095
3.08
3.07
3.055
3.055
3.045
3.025
3.005
3.03
3.025
3.025
3.055
3.03
3.025
3.035
3.03
3.005
3.01
3.025
3.03
3.025
3.015
3.035
3.025
3.025
3.025
3.015
3.005
3.015
3.015
3.015
3.025
3.025
3.035
2.995
3.01
3.005
3.015
3.025
3.005
2.995
2.99
2.995
3.01
3.005
3.015
2.985
2.995
2.985
2.975
2.965
2.995
3.01
2.985
2.97
2.955
2.95
2.93
2.945
3.01
3.055
3.05
3.015
3.01
3.015
2.995
2.97
2.985
3.005
3.01
2.995
2.995
2.995
2.995
2.985
2.995
2.99
2.99
2.995
2.985
2.985
2.995
2.995
2.995
2.975
2.995
3.03
3.025
2.995
2.995
2.995
2.995
2.995
2.97
2.995
3.01
3.005
3.015
3.005
3.005
2.975
2.985
3.005
3.015
3.005
2.995
2.985
2.985
2.97
2.95
2.97
2.975
2.97
2.985
2.965
2.95
2.93
2.9
2.89
2.91
2.94
2.93
2.945
2.93
2.925
2.92
2.92
2.94
2.93
2.925
2.965
2.945
2.945
2.95
2.945
2.93
2.91
2.945
2.975
2.99
2.97
2.965
2.97
2.975
2.955
2.965
3.015
3.09
3.155
3.225
3.28
3.28
3.2
2.87
2.575
2.39
2.325
2.39
2.37
2.39
2.6
2.785
2.885
2.91
2.92
2.925
2.955
2.985
2.945
2.975
2.985
2.995
3.005
3.01
3.005
3.005
3.005
2.995
3.015
2.995
3.005
3.01
3.015
3.025
3.025
3.025
3.03
3.03
3.035
3.05
3.035
3.045
3.05
3.05
3.055
3.035
3.07
3.065
3.075
3.08
3.08
3.1
3.11
3.115
3.12
3.135
3.155
3.15
3.15
3.155
3.16
3.205
3.205
3.205
3.205
3.22
3.235
3.235
3.24
3.26
3.265
3.275
3.265
3.265
3.26
3.265
3.265
3.295
3.265
3.24
3.22
3.17
3.16
3.16
3.15
3.13
3.11
3.1
3.075
3.05
3.015
2.995
3.015
2.985
2.99
2.995
2.995
2.99
2.99
2.975
2.97
2.985
2.975
2.965
2.94
2.985
2.975
2.995
2.975
2.97
2.955
2.97
2.95
2.965
2.975
2.975
2.99
2.99
2.97
2.95
2.94
2.955
2.97
2.965
2.97
2.955
2.95
2.94
2.95
2.97
2.985
2.97
2.95
2.95
2.965
2.97
2.97
2.965
2.95
2.945
2.955
2.965
2.965
2.945
2.94
2.945
2.965
2.945
2.95
2.955
2.955
2.965
2.945
2.945
2.95
2.97
2.975
2.97
2.97
2.97
2.97
2.955
2.955
2.945
2.97
2.97
2.955
2.965
2.97
2.975
2.965
2.955
2.955
2.97
2.97
2.97
2.955
2.97
2.97
2.965
2.99
2.975
2.975
2.975
2.975
2.97
2.955
2.97
2.975
2.99
2.985
2.975
2.97
2.97
2.965
2.955
2.965
2.975
2.975
2.97
2.975
2.97
2.955
2.95
2.95
2.97
2.965
2.99
2.97
2.97
2.97
2.945
2.945
2.93
2.9
2.89
2.9
2.905
2.885
2.9
2.91
2.905
2.88
2.905
2.92
2.91
2.91
2.925
2.93
2.95
2.93
2.925
2.945
2.95
2.94
2.94
2.95
2.97
2.965
2.975
2.985
2.97
2.965
2.97
2.99
3.01
3.08
3.155
3.235
3.3
3.285
3.18
2.905
2.64
2.45
2.345
2.4
2.4
2.445
2.615
2.785
2.88
2.89
2.9
2.925
2.93
2.965
2.995
2.995
2.99
2.99
3.005
3.015
3.005
2.995
3.005
2.995
3.025
3.03
3.025
3.015
2.99
3.015
3.025
3.03
3.03
3.035
3.05
3.05
3.045
3.045
3.05
3.05
3.065
3.055
3.055
3.075
3.08
3.08
3.1
3.1
3.095
3.12
3.12
3.12
3.135
3.155
3.155
3.175
3.155
3.17
3.18
3.175
3.215
3.22
3.24
3.24
3.24
3.235
3.255
3.275
3.285
3.28
3.26
3.28
3.265
3.265
3.255
3.245
3.24
3.205
3.19
3.175
3.155
3.13
3.1
3.075
3.075
3.05
3.05
3.005
3.025
3.01
2.995
2.995
2.99
2.99
2.995
3.015
2.995
2.99
2.995
2.995
3.005
2.985
2.985
2.975
2.99
2.99
2.995
2.995
3.01
2.995
3.005
2.995
2.995
2.995
2.97
2.995
3.005
2.99
2.995
2.975
2.99
3.005
2.995
2.995
2.995
3.005
2.995
2.985
2.995
2.995
2.965
2.97
2.985
2.985
2.99
2.985
2.975
2.975
2.975
2.97
2.975
2.985
2.985
2.99
2.97
2.975
2.965
2.97
2.975
2.99
2.975
2.965
2.97
2.975
2.985
2.975
2.975
2.995
2.995
2.99
2.975
2.975
2.975
2.985
2.995
2.985
2.97
2.97
2.985
2.985
2.975
2.975
2.99
2.975
2.995
2.99
2.995
2.985
2.975
2.995
2.985
2.985
2.985
2.995
2.995
2.975
2.975
2.995
2.99
2.965
2.995
2.985
2.99
2.985
2.995
2.985
2.995
2.975
2.995
2.995
2.985
2.995
2.995
3.005
2.995
2.985
2.995
2.995
2.995
2.99
2.995
2.995
3.005
3.01
3.005
2.995
2.985
2.995
2.97
2.945
2.945
2.945
2.925
2.93
2.95
2.965
2.965
2.955
2.945
2.97
2.97
2.975
2.97
2.985
2.995
2.99
2.975
2.995
2.985
2.975
2.995
3.01
3.025
3.025
3.015
3.005
3.005
3.03
3.005
3.03
3.065
3.13
3.205
3.28
3.36
3.35
3.24
2.93
2.67
2.47
2.37
2.44
2.42
2.455
2.66
2.85
2.95
2.95
2.95
2.975
3.005
3.015
3.03
3.035
3.035
3.005
3.045
3.05
3.05
3.055
3.055
3.055
3.065
3.065
3.075
3.075
3.08
3.07
3.09
3.09
3.1
3.065
3.09
3.1
3.1
3.11
3.12
3.135
3.155
3.14
3.12
3.135
3.14
3.15
3.175
3.16
3.175
3.18
3.19
3.2
3.205
3.205
3.225
3.24
3.255
3.245
3.26
3.265
3.295
3.3
3.325
3.33
3.34
3.345
3.365
3.37
3.38
3.39
3.385
3.385
3.38
3.38
3.37
3.345
3.36
3.34
3.305
3.285
3.26
3.22
3.195
3.18
3.155
3.13
3.12
3.11
3.095
3.075
3.07
3.07
3.055
3.065
3.055
3.055
3.07
3.075
3.07
3.065
3.05
3.065
3.055
3.035
3.05
3.05
3.035
3.035
3.035
3.045
3.05
3.05
3.045
3.05
3.05
3.05
3.055
3.055
3.05
3.025
3.05
3.045
3.03
3.03
3.025
3.025
3.03
3.045
3.03
3.045
3.055
3.045
3.05
3.045
3.03
3.005
3.015
3.005
3.025
3.025
3.015
3.03
3.03
3.035
3.025
3.015
3.025
3.015
3.025
3.025
3.03
3.015
3.015
3.01
3.015
3.015
3.025
3.025
3.035
3.03
3.015
3.005
3.025
3.025
3.025
3.03
3.035
3.025
3.015
3.015
3.025
3.03
3.035
3.03
3.03
3.03
3.05
3.05
3.025
3.05
3.05
3.05
3.05
3.03
3.035
3.05
3.05
3.055
3.055
3.05
3.05
3.045
3.05
3.055
3.03
3.055
3.05
3.05
3.05
3.05
3.05
3.055
3.05
3.05
3.05
3.055
3.055
3.045
3.05
3.05
3.05
3.065
3.05
3.035
3.05
3.055
3.045
3.015
3.015
3.03
3.03
3.015
2.985
2.985
2.995
3.015
2.99
2.99
3.01
3.025
3.01
2.99
2.985
2.995
3.015
3.03
3.025
2.995
3.035
3.025
3.01
3.015
2.995
3.005
3.025
3.03
3.045
3.035
3.025
3.03
3.03
3.05
3.05
3.03
3.09
3.18
3.255
3.34
3.39
3.42
3.32
2.99
2.69
2.45
2.39
2.43
2.38
2.41
2.63
2.84
2.975
3.005
3.015
3.015
3.025
3.045
3.03
3.025
3.05
3.065
3.025
3.055
3.065
3.065
3.08
3.075
3.08
3.09
3.08
3.08
3.08
3.12
3.1
3.11
3.12
3.12
3.09
3.12
3.13
3.135
3.13
3.12
3.14
3.16
3.16
3.18
3.18
3.19
3.205
3.215
3.215
3.205
3.235
3.205
3.225
3.235
3.24
3.245
3.26
3.28
3.305
3.315
3.315
3.325
3.35
3.365
3.365
3.365
3.38
3.39
3.39
3.4
3.4
3.405
3.425
3.42
3.4
3.365
3.345
3.35
3.315
3.285
3.26
3.235
3.205
3.175
3.155
3.14
3.12
3.1
3.08
3.08
3.065
3.05
3.07
3.035
3.065
3.065
3.07
3.075
3.065
3.065
3.065
3.075
3.07
3.07
3.065
3.07
3.07
3.055
3.035
3.045
3.05
3.05
3.055
3.055
3.05
3.05
3.055
3.05
3.05
3.05
3.035
3.035
3.03
3.025
3.045
3.035
3.05
3.035
3.015
3.015
3.03
3.03
3.03
3.035
3.03
3.025
2.995
3.025
3.025
3.025
3.03
3.025
3.03
3.03
3.015
3.025
3.025
3.03
3.025
3.035
3.05
3.05
3.025
3.03
3.03
3.035
3.035
3.035
3.035
3.035
3.045
3.035
3.045
3.03
3.035
3.045
3.05
3.035
3.025
3.035
3.05
3.045
3.035
3.035
3.05
3.05
3.035
3.035
3.055
3.03
3.055
3.05
3.045
3.035
3.035
3.05
3.05
3.055
3.05
3.07
3.075
3.05
3.05
3.05
3.05
3.025
3.05
3.045
3.05
3.05
3.05
3.045
3.045
3.05
3.05
3.05
3.05
3.045
3.045
3.03
3.005
2.985
3.005
3.005
2.995
2.995
3.01
3.025
2.995
2.97
2.975
3.005
3.015
3.03
3.015
3.015
3.01
2.99
2.99
2.995
2.995
3.005
3.015
3.025
3.03
3.03
3.025
3.025
3.005
3.03
3.03
3.055
3.135
3.205
3.275
3.36
3.39
3.37
3.155
2.8
2.485
2.305
2.33
2.35
2.32
2.47
2.69
2.84
2.945
2.99
3.005
2.995
3.005
3.025
3.035
3.035
3.05
3.05
3.065
3.07
3.055
3.075
3.07
3.08
3.095
3.09
3.09
3.1
3.1
3.09
3.095
3.11
3.12
3.115
3.12
3.135
3.135
3.14
3.15
3.14
3.14
3.155
3.175
3.19
3.18
3.18
3.19
3.235
3.215
3.225
3.235
3.245
3.26
3.26
3.265
3.265
3.275
3.285
3.315
3.325
3.34
3.34
3.36
3.38
3.37
3.37
3.385
3.385
3.385
3.39
3.4
3.41
3.405
3.39
3.37
3.345
3.325
3.315
3.285
3.26
3.235
3.205
3.195
3.16
3.135
3.115
3.1
3.09
3.07
3.075
3.05
3.065
3.055
3.05
3.055
3.055
3.065
3.075
3.055
3.055
3.065
3.08
3.05
3.055
3.05
3.05
3.035
3.05
3.05
3.05
3.065
3.07
3.055
3.05
3.05
3.065
3.07
3.05
3.05
3.055
3.055
3.05
3.045
3.05
3.05
3.045
3.045
3.035
3.03
3.03
3.035
3.035
3.03
3.045
3.045
3.05
3.05
3.035
3.03
3.035
3.05
3.035
3.035
3.05
3.055
3.05
3.035
3.025
3.025
3.005
3.03
3.03
3.03
3.045
3.035
3.05
3.05
3.05
3.05
3.05
3.045
3.035
3.035
3.035
3.055
3.03
3.05
3.035
3.03
3.035
3.035
3.045
3.035
3.035
3.05
3.05
3.05
3.045
3.035
3.03
3.03
3.03
3.03
3.025
3.03
3.05
3.035
3.035
3.03
3.025
3.025
3.025
3.03
3.045
3.03
3.03
3.03
3.025
3.035
3.03
3.025
3.025
3.03
3.03
3.025
3.015
3.015
3.025
3.005
3.025
3.025
3.01
3.01
2.985
2.955
2.965
2.955
2.945
2.955
2.97
2.995
2.99
2.97
2.965
2.955
2.975
2.99
2.995
2.995
3.005
2.99
2.97
2.975
2.99
2.995
2.995
3.01
3.025
3.025
3.01
2.995
3.005
3.005
3.015
3.045
3.075
3.16
3.24
3.33
3.37
3.34
3.065
2.76
2.55
2.39
2.42
2.4
2.365
2.535
2.745
2.9
2.95
2.995
2.97
2.995
2.995
3.015
3.005
3.025
3.045
3.035
3.035
3.045
3.035
3.045
3.045
3.055
3.055
3.05
3.05
3.055
3.055
3.065
3.065
3.075
3.075
3.095
3.1
3.11
3.1
3.1
3.13
3.135
3.13
3.13
3.15
3.14
3.155
3.16
3.18
3.19
3.18
3.2
3.195
3.205
3.22
3.235
3.24
3.26
3.26
3.305
3.285
3.3
3.3
3.315
3.34
3.34
3.34
3.34
3.34
3.35
3.365
3.365
3.35
3.365
3.345
3.365
3.34
3.305
3.295
3.265
3.235
3.22
3.19
3.175
3.155
3.12
3.1
3.09
3.095
3.07
3.07
3.05
3.055
3.05
3.05
3.055
3.055
3.05
3.035
3.045
3.035
3.055
3.035
3.05
3.03
3.035
3.035
3.045
3.055
3.05
3.035
3.035
3.05
3.05
3.035
3.05
3.05
3.05
3.015
3.045
3.045
3.035
3.03
3.035
3.045
3.035
3.03
3.035
3.035
3.03
3.03
3.025
3.03
3.025
2.995
3.025
3.025
3.025
3.045
3.025
3.025
3.015
3.025
3.025
3.03
3.025
3.015
3.015
3.025
3.015
3.01
3.025
3.03
3.025
3.015
3.01
3.015
3.03
3.025
3.01
3.015
2.995
3.025
3.025
3.025
3.015
3.025
3.03
3.03
3.015
3.015
3.03
3.065
3.035
3.025
3.025
3.045
3.005
3.025
3.03
3.035
3.03
3.03
3.025
3.035
3.05
3.045
3.035
3.025
3.025
3.025
3.055
3.035
3.015
3.015
3.025
3.03
3.03
3.025
3.035
3.035
3.025
3.025
3.025
3.03
3.035
3.035
3.035
3.03
3.015
3.025
3.045
3.05
3.025
3.03
2.995
2.97
2.985
2.99
2.97
2.94
2.99
3.01
3.005
2.97
2.97
2.995
3.01
3.01
3.015
3.025
3.025
3.015
2.995
3.005
3.005
3.005
3.025
3.03
3.03
3.03
3.05
3.055
3.05
3.05
3.045
3.065
3.1
3.18
3.24
3.34
3.39
3.39
3.225
2.885
2.655
2.475
2.465
2.475
2.43
2.51
2.735
2.89
2.975
2.995
3.025
3.015
3.025
3.035
3.05
3.065
3.065
3.055
3.07
3.07
3.07
3.07
3.075
3.075
3.055
3.095
3.09
3.095
3.09
3.1
3.11
3.115
3.12
3.115
3.135
3.13
3.135
3.13
3.155
3.15
3.175
3.16
3.155
3.155
3.175
3.195
3.195
3.195
3.215
3.225
3.235
3.24
3.255
3.265
3.28
3.275
3.295
3.295
3.305
3.34
3.34
3.345
3.345
3.365
3.39
3.39
3.385
3.41
3.405
3.42
3.42
3.405
3.4
3.385
3.38
3.365
3.345
3.32
3.315
3.275
3.24
3.22
3.19
3.195
3.16
3.14
3.12
3.1
3.09
3.095
3.09
3.075
3.08
3.1
3.08
3.075
3.075
3.08
3.095
3.075
3.07
3.075
3.08
3.09
3.08
3.075
3.075
3.08
3.08
3.095
3.08
3.08
3.075
3.075
3.08
3.08
3.07
3.07
3.08
3.07
3.075
3.065
3.075
3.065
3.065
3.075
3.055
3.075
3.065
3.07
3.075
3.065
3.065
3.05
3.05
3.055
3.055
3.055
3.065
3.045
3.035
3.05
3.05
3.055
3.03
3.05
3.05
3.05
3.05
3.05
3.055
3.07
3.055
3.05
3.05
3.055
3.055
3.055
3.05
3.05
3.05
3.055
3.055
3.05
3.065
3.065
3.05
3.05
3.05
3.03
3.065
3.07
3.08
3.075
3.035
3.055
3.07
3.065
3.065
3.055
3.08
3.075
3.065
3.075
3.07
3.05
3.07
3.07
3.07
3.07
3.08
3.075
3.07
3.065
3.065
3.07
3.08
3.075
3.07
3.075
3.075
3.05
3.055
3.065
3.065
3.07
3.07
3.055
3.065
3.065
3.065
3.045
3.005
3.015
3.015
3.01
3.005
3.015
3.03
3.03
3.01
2.995
3.01
3.03
3.03
3.045
3.03
3.05
3.01
3.015
3.015
3.025
3.025
3.025
3.035
3.05
3.065
3.055
3.065
3.08
3.07
3.065
3.075
3.115
3.225
3.285
3.385
3.445
3.44
3.235
2.865
2.575
2.4
2.405
2.43
2.39
2.49
2.715
2.89
2.985
2.995
3.01
3.005
3.025
3.045
3.05
3.05
3.05
3.07
3.075
3.075
3.075
3.07
3.08
3.08
3.095
3.08
3.09
3.1
3.1
3.115
3.1
3.12
3.13
3.135
3.13
3.12
3.12
3.15
3.155
3.155
3.15
3.175
3.19
3.19
3.19
3.19
3.19
3.205
3.205
3.205
3.22
3.235
3.265
3.255
3.265
3.28
3.295
3.3
3.315
3.34
3.34
3.34
3.35
3.365
3.37
3.4
3.39
3.385
3.4
3.42
3.42
3.41
3.42
3.4
3.38
3.36
3.34
3.315
3.275
3.285
3.235
3.22
3.18
3.155
3.155
3.12
3.095
3.08
3.1
3.1
3.1
3.09
3.08
3.08
3.08
3.05
3.08
3.075
3.08
3.075
3.075
3.075
3.075
3.07
3.075
3.09
3.075
3.075
3.065
3.075
3.08
3.055
3.065
3.07
3.08
3.08
3.07
3.075
3.07
3.075
3.065
3.065
3.055
3.065
3.065
3.07
3.065
3.055
3.07
3.065
3.065
3.07
3.065
3.065
3.065
3.075
3.065
3.05
3.035
3.065
3.055
3.065
3.065
3.05
3.05
3.05
3.055
3.065
3.075
3.07
3.05
3.05
3.075
3.065
3.035
3.055
3.05
3.05
3.075
3.055
3.055
3.055
3.07
3.065
3.075
3.065
3.07
3.055
3.065
3.075
3.055
3.065
3.07
3.065
3.055
3.05
3.055
3.065
3.065
3.055
3.065
3.07
3.065
3.065
3.055
3.05
3.045
3.055
3.055
3.065
3.055
3.05
3.05
3.05
3.055
3.055
3.075
3.035
3.065
3.055
3.055
3.075
3.055
3.065
3.05
3.05
3.055
3.055
3.05
3.05
3.045
3.05
3.035
3.005
2.985
2.985
2.995
2.995
2.965
2.975
3.005
3.025
3.005
2.985
2.985
3.01
3.025
3.025
3.025
3.03
3.025
3.005
2.995
3.01
3.005
3.005
3.025
3.05
3.055
3.055
3.03
3.035
3.045
3.05
3.05
3.075
3.16
3.245
3.33
3.405
3.385
3.225
2.88
2.61
2.43
2.425
2.44
2.4
2.53
2.745
2.925
2.985
2.985
2.985
3.015
3.025
3.035
3.05
3.05
3.055
3.055
3.065
3.05
3.07
3.07
3.08
3.075
3.065
3.07
3.08
3.09
3.095
3.095
3.08
3.09
3.1
3.11
3.115
3.11
3.12
3.12
3.135
3.135
3.15
3.15
3.16
3.17
3.175
3.17
3.205
3.19
3.19
3.215
3.225
3.235
3.24
3.24
3.245
3.265
3.28
3.295
3.305
3.325
3.33
3.34
3.36
3.35
3.37
3.38
3.38
3.38
3.39
3.4
3.39
3.385
3.37
3.37
3.365
3.34
3.3
3.265
3.255
3.235
3.205
3.17
3.155
3.135
3.12
3.11
3.095
3.08
3.08
3.08
3.07
3.065
3.065
3.07
3.055
3.07
3.065
3.065
3.065
3.05
3.05
3.05
3.05
3.05
3.065
3.03
3.05
3.045
3.05
3.05
3.03
3.035
3.045
3.035
3.05
3.045
3.025
3.035
3.045
3.03
3.035
3.015
3.03
3.025
3.025
3.025
3.03
3.025
3.01
3.005
3.015
3.025
3.025
3.025
3.005
2.995
3.015
3.005
3.01
3.01
3.005
3.015
3.005
3.005
2.995
2.995
3.01
3.015
2.985
3.005
3.015
3.025
3.025
3.015
3.015
3.01
3.01
3.005
3.01
3.05
3.025
3.025
3.025
3.015
3.005
3.015
3.025
3.025
3.025
3.025
3.015
3.03
3.01
3.015
3.025
3.025
3.015
3.025
3.03
3.015
2.995
3.025
3.015
3.025
3.035
3.03
3.025
3.01
3.01
3.025
3.025
3.025
3.025
3.03
3.03
3.025
3.025
3.03
3.035
3.045
3.03
3.03
3.025
3.03
3.035
3.03
3.03
2.995
3.03
3.015
3.005
2.985
2.97
2.975
2.975
2.955
2.97
3.005
3.015
2.985
2.975
2.975
3.005
2.995
3.025
3.025
3.015
3.015
2.995
2.995
2.995
2.995
3.01
3.025
3.025
3.025
3.035
3.05
3.045
3.025
3.035
3.05
3.095
3.175
3.245
3.35
3.41
3.4
3.235
2.89
2.63
2.445
2.445
2.445
2.405
2.525
2.76
2.905
2.975
2.995
3.025
3.025
3.03
3.035
3.035
3.05
3.035
3.07
3.065
3.07
3.065
3.07
3.08
3.095
3.08
3.075
3.095
3.095
3.1
3.1
3.11
3.11
3.1
3.115
3.135
3.12
3.135
3.13
3.155
3.16
3.16
3.155
3.155
3.17
3.18
3.195
3.205
3.215
3.235
3.235
3.235
3.24
3.255
3.265
3.28
3.285
3.305
3.295
3.315
3.35
3.345
3.365
3.39
3.39
3.4
3.39
3.42
3.425
3.41
3.4
3.42
3.41
3.39
3.38
3.345
3.345
3.305
3.285
3.26
3.22
3.19
3.19
3.16
3.135
3.13
3.115
3.11
3.11
3.095
3.075
3.08
3.055
3.09
3.08
3.08
3.08
3.09
3.075
3.075
3.08
3.08
3.09
3.075
3.08
3.065
3.065
3.075
3.075
3.075
3.075
3.08
3.075
3.08
3.075
3.07
3.075
3.08
3.08
3.05
3.065
3.05
3.065
3.07
3.05
3.05
3.05
3.055
3.055
3.065
3.05
3.05
3.05
3.055
3.055
3.035
3.055
3.05
3.05
3.05
3.05
3.045
3.05
3.055
3.055
3.05
3.055
3.065
3.05
3.025
3.03
3.03
3.045
3.045
3.045
3.05
3.035
3.045
3.05
3.05
3.05
3.065
3.05
3.05
3.055
3.055
3.05
3.035
3.05
3.055
3.05
3.05
3.05
3.05
3.055
3.075
3.065
3.05
3.015
3.05
3.045
3.045
3.05
3.035
3.055
3.065
3.05
3.05
3.055
3.05
3.065
3.05
3.05
3.055
3.05
3.065
3.05
3.05
3.055
3.07
3.055
3.05
3.055
3.055
3.055
3.05
3.055
3.05
3.055
3.065
3.045
3.035
3.025
3.005
3.005
3.005
2.985
2.975
3.025
3.045
3.025
2.965
2.99
3.01
3.025
3.025
3.03
3.03
3.035
3.01
3.015
3.01
3.035
3.015
3.025
3.03
3.05
3.025
3.035
3.05
3.045
3.035
3.05
3.075
3.155
3.235
3.315
3.38
3.41
3.345
3.045
2.695
2.445
2.33
2.41
2.39
2.405
2.61
2.815
2.945
3.005
3.015
3.015
3.025
3.03
3.05
3.05
3.075
3.075
3.065
3.08
3.09
3.09
3.08
3.075
3.08
3.09
3.1
3.09
3.1
3.07
3.11
3.095
3.095
3.1
3.115
3.115
3.12
3.13
3.135
3.14
3.15
3.14
3.155
3.17
3.175
3.2
3.175
3.2
3.205
3.215
3.205
3.205
3.225
3.235
3.24
3.245
3.265
3.28
3.285
3.315
3.33
3.34
3.345
3.36
3.365
3.37
3.37
3.38
3.39
3.4
3.39
3.385
3.39
3.37
3.36
3.34
3.32
3.3
3.26
3.225
3.19
3.175
3.155
3.14
3.12
3.11
3.1
3.095
3.05
3.07
3.07
3.065
3.07
3.055
3.07
3.065
3.05
3.05
3.065
3.065
3.055
3.065
3.07
3.07
3.05
3.075
3.07
3.065
3.055
3.065
3.08
3.075
3.065
3.07
3.075
3.08
3.08
3.075
3.065
3.07
3.055
3.07
3.065
3.05
3.065
3.065
3.065
3.05
3.045
3.05
3.055
3.03
3.05
3.065
3.065
3.055
3.05
3.05
3.045
3.055
3.055
3.055
3.075
3.055
3.065
3.055
3.065
3.03
3.055
3.05
3.05
3.035
3.035
3.05
3.05
3.07
3.055
3.05
3.05
3.05
3.05
3.055
3.055
3.035
3.065
3.055
3.05
3.055
3.05
3.03
3.035
3.05
3.05
3.045
3.045
3.045
3.05
3.055
3.05
3.05
3.05
3.025
3.05
3.05
3.05
3.035
3.05
3.035
3.045
3.05
3.025
3.025
3.035
3.055
3.05
3.025
3.035
3.035
3.05
3.045
3.035
3.03
3.05
3.05
3.05
3.035
3.025
3.045
3.035
3.03
3.025
3.025
3.005
2.965
2.975
2.99
2.975
2.95
2.975
2.995
2.99
2.97
2.965
2.99
2.995
3.005
3.005
3.005
3.01
2.995
2.995
2.995
2.995
3.005
3.005
3.015
3.025
3.035
3.025
3.03
3.015
3.03
3.035
3.055
3.12
3.2
3.275
3.34
3.345
3.24
2.92
2.655
2.475
2.425
2.475
2.45
2.515
2.715
2.865
2.95
2.965
2.97
2.995
3.005
3.025
3.015
3.035
3.025
3.045
3.035
3.035
3.045
3.045
3.05
3.045
3.075
3.07
3.055
3.065
3.075
3.075
3.075
3.08
3.08
3.1
3.11
3.11
3.075
3.09
3.11
3.12
3.115
3.1
3.14
3.14
3.155
3.15
3.17
3.17
3.2
3.2
3.195
3.2
3.215
3.22
3.225
3.225
3.24
3.295
3.295
3.3
3.315
3.315
3.32
3.32
3.34
3.345
3.365
3.365
3.365
3.37
3.37
3.365
3.345
3.365
3.345
3.315
3.285
3.265
3.245
3.225
3.205
3.19
3.16
3.13
3.11
3.1
3.09
3.09
3.08
3.065
3.05
3.065
3.05
3.045
3.035
3.045
3.05
3.05
3.035
3.055
3.03
3.035
3.045
3.055
3.045
3.03
3.05
3.05
3.03
3.035
3.05
3.05
3.05
3.03
3.045
3.07
3.025
3.035
3.035
3.035
3.05
3.05
3.035
3.03
3.045
3.035
3.05
3.03
3.015
3.025
3.025
3.025
3.015
3.025
3.03
3.03
3.015
3.01
3.015
3.025
3.025
3.025
3.025
3.015
3.025
3.025
3.025
3.015
3.025
3.03
3.025
3.025
3.025
3.035
3.03
3.03
3.01
3.01
3.03
3.015
3.025
3.03
3.03
3.035
3.045
3.035
3.035
3.025
3.03
3.035
3.035
3.015
3.03
3.035
3.035
2.995
3.025
3.025
3.035
3.05
3.035
3.025
3.035
3.045
3.045
3.035
3.025
3.025
3.03
3.035
3.035
3.025
3.025
3.025
3.03
3.03
3.015
3.025
3.03
3.03
3.025
3.035
3.005
3.025
3.03
3.035
3.025
3.01
3.025
3.025
3.015
3.005
3.015
3.05
3.03
3.025
3.025
3.01
2.995
3.015
3.015
3.005
2.985
2.955
2.95
2.965
2.95
2.97
2.99
2.995
2.97
2.945
2.945
2.975
2.97
2.995
2.995
3.01
3.015
2.975
2.985
2.99
2.99
2.995
3.01
3.025
3.025
3.03
3.03
3.03
3.025
3.025
3.03
3.05
3.11
3.19
3.265
3.35
3.38
3.26
2.95
2.655
2.495
2.41
2.445
2.42
2.47
2.68
2.865
2.965
2.985
2.995
2.995
3.015
3.015
3.025
3.045
3.045
3.065
3.055
3.065
3.065
3.075
3.07
3.05
3.075
3.095
3.1
3.095
3.08
3.09
3.1
3.095
3.095
3.11
3.095
3.115
3.12
3.12
3.13
3.15
3.155
3.14
3.14
3.18
3.155
3.155
3.18
3.175
3.195
3.205
3.205
3.205
3.205
3.225
3.24
3.24
3.255
3.265
3.28
3.34
3.32
3.34
3.325
3.33
3.35
3.345
3.35
3.35
3.365
3.37
3.38
3.38
3.38
3.37
3.365
3.36
3.315
3.3
3.285
3.245
3.225
3.205
3.19
3.16
3.135
3.12
3.1
3.09
3.075
3.07
3.075
3.055
3.07
3.07
3.065
3.055
3.065
3.055
3.05
3.045
3.045
3.045
3.015
3.045
3.045
3.035
3.05
3.035
3.05
3.045
3.03
3.035
3.03
3.055
3.035
3.045
3.035
3.045
3.025
3.05
3.05
3.025
3.025
3.035
3.035
3.025
3.025
3.015
3.01
3.015
3.01
3.015
3.015
3.025
2.995
3.01
3.025
3.025
3.01
3.01
3.005
3.005
2.995
2.995
2.975
2.965
3.005
3.05
3.035
3.025
3.015
3.015
3.015
3.005
2.995
2.995
3.01
3.035
3.025
3.015
3.025
2.995
3.015
2.995
3.005
2.995
2.995
2.995
3.005
3.065
3.065
3.045
3.005
2.965
2.945
2.975
2.995
2.92
2.91
2.885
2.97
3.025
3.025
3.035
3.065
3.11
3.08
3.055
3.025
3.045
3.05
3.025
3.065
3.035
3.03
3.025
3.025
3.005
2.965
2.93
2.97
3.035
3.03
3.015
2.975
2.965
2.995
3.005
3.09
3.065
3.045
3.035
3.03
3.005
3.015
3.045
3.01
2.97
2.965
2.985
2.955
2.995
3.025
3.035
3.07
3.005
2.955
2.93
2.945
2.995
3.015
3.015
3.005
2.94
2.905
2.92
2.95
3.045
3.03
2.975
2.955
2.93
2.925
2.945
2.945
2.965
3.075
3.055
3.025
3.025
3.015
3.025
3.025
3.015
2.995
2.99
3.015
3.075
3.135
3.275
3.44
3.45
3.215
2.845
2.6
2.37
2.34
2.34
2.38
2.565
2.76
2.885
2.945
2.965
2.965
2.945
2.91
2.93
2.975
3.07
3.12
3.035
3.035
3.09
3.07
3.03
3.045
3.08
3.075
3.08
3.01
3.015
3.11
3.155
3.11
3.08
3.095
3.095
3.155
3.18
3.175
3.14
3.115
3.1
3.1
3.135
3.17
3.1
3.1
3.195
3.245
3.17
3.14
3.175
3.225
3.205
3.245
3.35
3.315
3.26
3.255
3.245
3.32
3.32
3.33
3.33
3.34
3.39
3.44
3.43
3.42
3.4
3.405
3.4
3.385
3.4
3.425
3.39
3.385
3.365
3.345
3.34
3.265
3.205
3.215
3.225
3.195
3.15
3.11
3.075
3.095
3.15
3.14
3.11
3.07
3.05
3.07
3.09
3.05
3.025
3.055
3.095
3.07
3.035
3.045
3.07
3.115
3.07
3.07
3.12
3.09
3.095
3.09
3.065
3.03
3.05
3.115
3.11
3.05
3.065
3.09
3.12
3.175
3.095
3.035
3.025
3.055
3.08
3.08
3.075
3.075
3.12
3.11
3.075
3.075
3.09
3.1
3.08
3.08
3.11
3.135
3.13
3.11
3.1
3.09
3.1
3.075
3.08
3.11
3.115
3.1
3.1
3.1
3.11
3.1
3.12
3.095
3.09
3.08
3.075
3.09
3.1
3.11
3.11
3.08
3.13
3.13
3.1
3.1
3.1
3.115
3.11
3.115
3.12
3.1
3.12
3.135
3.15
3.11
3.08
3.095
3.095
3.075
3.115
3.1
3.115
3.16
3.12
3.08
3.1
3.15
3.155
3.12
3.08
3.09
3.11
3.115
3.11
3.1
3.11
3.12
3.115
3.155
3.135
3.1
3.11
3.135
3.075
3.1
3.13
3.135
3.12
3.12
3.115
3.095
3.025
2.995
3.075
3.07
3.055
3.055
3.075
3.1
3.05
3.035
3.07
3.135
3.135
3.07
3.07
3.07
3.1
3.115
3.12
3.12
3.155
3.18
3.135
3.115
3.055
3.08
3.11
3.115
3.155
3.22
3.275
3.36
3.42
3.495
3.39
3.03
2.72
2.525
2.495
2.53
2.495
2.635
2.795
2.89
3.025
3.075
3.07
3.055
3.075
3.12
3.115
3.1
3.13
3.155
3.075
3.045
3.09
3.175
3.18
3.16
3.12
3.115
3.15
3.17
3.18
3.19
3.17
3.22
3.19
3.18
3.19
3.235
3.225
3.225
3.215
3.215
3.205
3.15
3.18
3.225
3.18
3.205
3.265
3.32
3.275
3.285
3.315
3.265
3.205
3.24
3.315
3.34
3.37
3.345
3.32
3.305
3.32
3.35
3.37
3.36
3.345
3.385
3.4
3.37
3.34
3.38
3.445
3.425
3.39
3.42
3.425
3.385
3.365
3.35
3.315
3.255
3.275
3.32
3.28
3.225
3.18
3.19
3.16
3.1
3.08
3.095
3.07
3.16
3.17
3.15
3.13
3.115
3.045
3.05
3.13
3.13
3.075
3.065
3.12
3.155
3.14
3.095
3.08
3.1
3.075
3.075
3.1
3.1
3.1
3.065
3.09
3.045
3.055
3.11
3.11
3.055
3.035
3.09
3.13
3.115
3.075
3.075
3.075
3.035
3.03
3.065
3.08
3.1
3.09
3.045
3.035
3.03
3.05
3.08
3.065
3.07
3.025
3.025
3.015
3.005
2.975
2.995
3.055
3.07
3.11
3.09
3.09
3.08
3.09
3.075
3.005
3.005
3.045
3.03
3.05
3.08
3.075
3.115
3.115
3.09
3.07
3.015
3.01
3.07
3.11
3.12
3.08
3.1
3.075
3.07
3.075
3.07
3.03
3.01
2.985
3.03
3.1
3.1
3.11
3.08
3.09
3.1
3.1
3.1
3.05
3.05
3.005
3.05
3.045
3.005
3.03
3.115
3.1
3.03
3.045
3.05
3.1
3.12
3.07
2.985
3.025
3.09
3.09
3.075
3.025
3.03
3.045
3.05
3.025
3.005
3.03
3.03
3.01
2.99
3.03
3.1
3.12
3.095
3.12
3.155
3.15
3.15
3.16
3.16
3.175
3.205
3.245
3.255
3.18
2.9
2.615
2.39
2.315
2.47
2.565
2.595
2.705
2.805
2.865
2.975
3.045
3.045
3.05
3.035
3.035
3.035
3.065
3.055
3.065
3.055
3.01
3.025
3.07
3.075
3.035
3.065
3.075
3.065
3.055
3.075
3.08
3.095
3.08
3.08
3.1
3.12
3.07
3.005
3.07
3.065
3.035
3.03
3.05
3.095
3.135
3.13
3.17
3.26
3.265
3.245
3.19
3.19
3.205
3.155
3.15
3.205
3.235
3.22
3.205
3.205
3.215
3.115
3.07
3.08
3.235
3.36
3.345
3.34
3.325
3.365
3.365
3.32
3.3
3.34
3.34
3.28
3.255
3.225
3.24
3.215
3.16
3.115
3.115
3.135
3.135
3.155
3.12
3.065
3.065
3.09
3.065
3.1
3.1
3.07
3.05
3.065
3.055
3.045
3.03
3.01
3.015
3.05
3.1
3.08
3.095
3.11
3.075
3.025
2.995
3.05
3.07
3.05
3.065
3.07
3.095
3.075
3.045
3.01
3.025
3.025
3.055
3.035
3.025
2.995
2.975
2.97
3.025
3.055
3.075
3.065
3.025
3.025
3.025
3.005
2.965
2.965
3.035
3.05
3.015
2.985
2.945
2.94
2.97
3.05
3.055
3.03
3.045
3.055
3.015
3.01
3.03
3.005
3.03
3.03
3.03
3.025
3.005
2.995
3.005
3.005
2.995
2.975
2.91
2.945
2.985
3.025
2.995
2.97
2.945
2.95
3.015
3.09
3.115
3.115
3.055
3.03
3.015
2.99
2.995
3.035
3.055
3.03
2.99
2.99
3.005
3.025
3.025
2.995
3.005
2.995
3.035
3.115
3.12
3.1
3.075
3.07
3.05
3.01
2.995
3.035
3.055
3.035
3.05
3.055
3.05
3.05
3.045
3.065
3.08
3.08
3.035
3.025
2.995
2.985
3.025
3.025
3.015
3.03
3.05
3.05
3.01
2.955
2.99
2.965
2.94
2.92
2.92
2.965
2.97
2.955
2.945
2.95
2.99
2.975
2.97
3.015
3.065
3.025
3.07
3.055
3.035
3.03
3.05
3.065
3.07
3.07
3.08
3.08
3.065
3.045
3.05
3.055
3.095
3.18
3.235
3.26
3.265
3.12
2.795
2.61
2.57
2.535
2.6
2.615
2.655
2.8
2.97
3.025
2.985
2.965
3.005
3.05
3.09
3.1
3.075
3.095
3.075
3.055
3.075
3.1
3.075
3.1
3.075
3.1
3.11
3.11
3.1
3.12
3.1
3.08
3.09
3.11
3.095
3.08
3.1
3.12
3.1
3.095
3.09
3.11
3.12
3.12
3.135
3.14
3.13
3.11
3.12
3.135
3.13
3.14
3.155
3.15
3.15
3.18
3.17
3.175
3.195
3.205
3.215
3.215
3.215
3.22
3.215
3.265
3.26
3.24
3.245
3.245
3.26
3.275
3.265
3.26
3.245
3.255
3.26
3.255
3.24
3.235
3.195
3.19
3.16
3.17
3.135
3.12
3.1
3.1
3.095
3.08
3.075
3.05
3.05
3.08
3.075
3.095
3.09
3.08
3.08
3.075
3.075
3.075
3.08
3.08
3.075
3.05
3.035
3.075
3.1
3.09
3.075
3.075
3.075
3.05
3.055
3.065
3.055
3.07
3.07
3.055
3.035
3.055
3.065
3.065
3.03
3.075
3.07
3.05
3.05
3.055
3.075
3.08
3.075
3.075
3.08
3.075
3.07
3.075
3.075
3.055
3.05
3.08
3.08
3.075
3.075
3.075
3.08
3.1
3.095
3.065
3.07
3.055
3.05
3.065
3.075
3.09
3.065
3.075
3.07
3.065
3.07
3.065
3.065
3.065
3.075
3.065
3.065
3.045
3.075
3.065
3.075
3.1
3.11
3.08
3.075
3.09
3.08
3.07
3.08
3.075
3.08
3.075
3.07
3.03
3.05
3.05
3.035
3.035
3.045
3.045
3.015
3.015
3.055
3.075
3.055
3.055
3.065
3.055
3.09
3.1
3.1
3.08
3.08
3.1
3.09
3.11
3.115
3.1
3.1
3.115
3.13
3.115
3.1
3.115
3.13
3.115
3.1
3.1
3.08
3.1
3.12
3.12
3.095
3.1
3.135
3.12
3.095
3.12
3.13
3.135
3.11
3.1
3.12
3.12
3.11
3.12
3.13
3.135
3.115
3.09
3.065
3.05
3.045
3.075
3.09
3.155
3.215
3.225
3.205
3.17
3.11
3.11
3.115
3.11
3.13
3.15
3.12
3.12
3.1
3.12
3.12
3.135
3.135
3.115
3.115
3.12
3.14
3.135
3.13
3.195
3.235
3.295
3.345
3.385
3.3
2.995
2.695
2.55
2.47
2.525
2.555
2.61
2.785
2.975
3.075
3.025
3.035
3.075
3.115
3.135
3.115
3.1
3.095
3.11
3.13
3.135
3.115
3.12
3.13
3.13
3.13
3.1
3.13
3.13
3.13
3.135
3.13
3.15
3.16
3.155
3.155
3.16
3.17
3.155
3.155
3.16
3.16
3.18
3.2
3.19
3.17
3.18
3.22
3.215
3.205
3.22
3.235
3.225
3.255
3.26
3.26
3.265
3.275
3.3
3.3
3.3
3.3
3.32
3.345
3.365
3.365
3.35
3.37
3.4
3.42
3.405
3.405
3.42
3.405
3.41
3.4
3.385
3.385
3.38
3.36
3.34
3.315
3.285
3.28
3.245
3.245
3.205
3.175
3.175
3.155
3.135
3.15
3.155
3.135
3.12
3.115
3.115
3.12
3.12
3.11
3.11
3.12
3.12
3.12
3.12
3.12
3.1
3.095
3.1
3.1
3.12
3.11
3.065
3.08
3.08
3.09
3.11
3.1
3.11
3.11
3.095
3.095
3.1
3.095
3.095
3.07
3.07
3.09
3.09
3.1
3.08
3.095
3.1
3.09
3.075
3.09
3.095
3.075
3.075
3.075
3.07
3.075
3.07
3.08
3.075
3.065
3.075
3.07
3.05
3.05
3.07
3.07
3.07
3.08
3.08
3.05
3.05
3.055
3.09
3.075
3.065
3.065
3.055
3.05
3.065
3.09
3.09
3.07
3.055
3.07
3.055
3.045
3.095
3.08
3.08
3.08
3.075
3.08
3.075
3.09
3.07
3.08
3.08
3.07
3.08
3.075
3.08
3.07
3.08
3.075
3.075
3.09
3.095
3.08
3.075
3.08
3.09
3.08
3.08
3.08
3.095
3.09
3.09
3.075
3.08
3.075
3.08
3.08
3.08
3.075
3.095
3.09
3.08
3.075
3.045
3.065
3.065
3.075
3.09
3.075
3.075
3.075
3.075
3.07
3.065
3.1
3.075
3.065
3.065
3.08
3.05
3.07
3.07
3.07
3.07
3.065
3.07
3.05
3.05
3.035
3.05
3.07
3.07
3.09
3.135
3.14
3.17
3.15
3.11
3.075
3.075
3.075
3.07
3.08
3.1
3.08
3.055
3.035
3.035
3.065
3.065
3.055
3.035
3.05
3.05
3.05
3.025
3.035
3.12
3.205
3.26
3.34
3.42
3.495
3.315
2.975
2.63
2.36
2.34
2.32
2.315
2.47
2.7
2.85
2.955
3.01
2.995
2.975
3.01
3.025
3.05
3.045
3.05
3.045
3.055
3.055
3.05
3.07
3.05
3.07
3.065
3.07
3.055
3.065
3.08
3.08
3.075
3.09
3.1
3.095
3.1
3.11
3.1
3.095
3.1
3.115
3.115
3.14
3.155
3.16
3.155
3.155
3.16
3.175
3.19
3.19
3.205
3.205
3.225
3.235
3.245
3.245
3.285
3.285
3.295
3.305
3.32
3.34
3.345
3.36
3.365
3.38
3.4
3.405
3.425
3.43
3.445
3.43
3.445
3.43
3.425
3.405
3.39
3.365
3.34
3.3
3.265
3.235
3.225
3.195
3.16
3.135
3.135
3.12
3.08
3.07
3.08
3.08
3.065
3.05
3.055
3.07
3.07
3.065
3.07
3.045
3.05
3.055
3.07
3.07
3.055
3.065
3.07
3.075
3.065
3.07
3.08
3.07
3.055
3.05
3.065
3.035
3.05
3.05
3.05
3.055
3.05
3.035
3.045
3.045
3.065
3.05
3.035
3.045
3.045
3.065
3.05
3.045
3.05
3.05
3.055
3.055
3.05
3.05
3.05
3.05
3.05
3.055
3.05
3.05
3.05
3.05
3.045
3.05
3.07
3.07
3.065
3.055
3.05
3.05
3.065
3.07
3.055
3.055
3.03
3.055
3.065
3.05
3.065
3.055
3.075
3.065
3.07
3.065
3.065
3.07
3.065
3.07
3.065
3.05
3.03
3.065
3.065
3.075
3.07
3.055
3.075
3.095
3.07
3.055
3.065
3.07
3.065
3.065
3.08
3.075
3.065
3.065
3.07
3.075
3.08
3.08
3.075
3.07
3.07
3.065
3.09
3.035
3.065
3.075
3.08
3.08
3.065
3.075
3.07
3.075
3.07
3.08
3.08
3.07
3.065
3.075
3.07
3.045
3.065
3.065
3.07
3.095
3.11
3.15
3.16
3.15
3.16
3.18
3.16
3.12
3.1
3.07
3.075
3.1
3.115
3.11
3.095
3.07
3.05
3.065
3.075
3.055
3.065
3.065
3.055
3.07
3.065
3.065
3.08
3.155
3.26
3.32
3.4
3.485
3.53
3.32
2.945
2.61
2.42
2.41
2.345
2.34
2.495
2.74
2.89
2.985
3.035
3.03
3.015
3.055
3.09
3.075
3.065
3.075
3.08
3.075
3.05
3.065
3.065
3.065
3.055
3.07
3.055
3.055
3.065
3.055
3.05
3.055
3.05
3.05
3.045
3.055
3.05
3.055
3.08
3.11
3.09
3.095
3.11
3.11
3.12
3.13
3.155
3.16
3.155
3.155
3.17
3.17
3.205
3.215
3.26
3.295
3.295
3.3
3.32
3.33
3.36
3.38
3.4
3.425
3.42
3.425
3.425
3.425
3.445
3.47
3.475
3.475
3.475
3.45
3.445
3.45
3.43
3.41
3.385
3.37
3.315
3.3
3.275
3.24
3.225
3.19
3.18
3.15
3.135
3.15
3.14
3.12
3.12
3.1
3.095
3.09
3.1
3.11
3.11
3.11
3.11
3.1
3.1
3.095
3.1
3.1
3.075
3.095
3.075
3.075
3.095
3.095
3.08
3.08
3.09
3.08
3.075
3.08
3.08
3.09
3.09
3.075
3.065
3.08
3.08
3.065
3.065
3.055
3.075
3.075
3.08
3.08
3.065
3.05
3.065
3.065
3.05
3.05
3.035
3.055
3.05
3.035
3.035
3.055
3.055
3.05
3.05
3.05
3.05
3.045
3.055
3.055
3.075
3.055
3.035
3.05
3.05
3.05
3.065
3.055
3.035
3.03
3.045
3.055
3.045
3.015
3.05
3.065
3.05
3.035
3.055
3.07
3.05
3.055
3.055
3.055
3.065
3.05
3.055
3.07
3.055
3.015
3.065
3.07
3.055
3.05
3.055
3.055
3.05
3.055
3.075
3.075
3.08
3.075
3.07
3.07
3.08
3.055
3.055
3.055
3.07
3.075
3.07
3.05
3.05
3.035
3.055
3.075
3.075
3.055
3.065
3.07
3.065
3.055
3.045
3.075
3.1
3.12
3.12
3.155
3.155
3.16
3.13
3.11
3.08
3.095
3.075
3.075
3.1
3.11
3.1
3.065
3.055
3.07
3.055
3.075
3.095
3.09
3.09
3.075
3.05
3.07
3.1
3.18
3.265
3.34
3.41
3.475
3.495
3.265
2.93
2.655
2.515
2.51
2.445
2.465
2.66
2.84
2.955
3.025
3.065
3.05
3.035
3.065
3.08
3.115
3.16
3.18
3.135
3.12
3.115
3.135
3.13
3.155
3.12
3.14
3.2
3.16
3.13
3.155
3.18
3.22
3.195
3.195
3.175
3.155
3.2
3.305
3.365
3.295
3.195
3.16
3.155
3.245
3.22
3.19
3.3
3.495
3.42
3.35
3.255
3.235
3.315
3.4
3.485
3.47
3.44
3.42
3.38
3.37
3.505
3.53
3.495
3.565
3.545
3.53
3.545
3.58
3.595
3.595
3.6
3.58
3.58
3.67
3.66
3.47
3.455
3.57
3.515
3.41
3.44
3.425
3.365
3.345
3.405
3.345
3.295
3.365
3.35
3.275
3.28
3.275
3.275
3.26
3.285
3.235
3.26
3.26
3.225
3.26
3.3
3.28
3.22
3.205
3.295
3.245
3.215
3.225
3.265
3.285
3.305
3.315
3.295
3.24
3.235
3.265
3.345
3.24
3.11
3.16
3.28
3.32
3.275
3.265
3.33
3.345
3.285
3.24
3.275
3.295
3.26
3.19
3.19
3.2
3.235
3.305
3.265
3.265
3.265
3.24
3.205
3.22
3.205
3.18
3.3
3.32
3.24
3.235
3.235
3.24
3.19
3.22
3.235
3.28
3.295
3.28
3.205
3.205
3.24
3.22
3.205
3.225
3.235
3.205
3.205
3.225
3.22
3.22
3.24
3.215
3.155
3.175
3.22
3.245
3.225
3.2
3.22
3.225
3.235
3.215
3.18
3.16
3.18
3.215
3.215
3.215
3.2
3.175
3.175
3.2
3.195
3.18
3.16
3.16
3.18
3.155
3.14
3.175
3.175
3.17
3.155
3.12
3.15
3.15
3.14
3.195
3.255
3.235
3.175
3.16
3.205
3.175
3.155
3.135
3.135
3.155
3.16
3.13
3.1
3.1
3.11
3.095
3.08
3.095
3.11
3.075
3.05
3.075
3.09
3.07
3.05
3.14
3.225
3.265
3.36
3.425
3.42
3.235
2.925
2.68
2.55
2.6
2.55
2.515
2.67
2.825
2.965
3.015
3.025
3.01
2.995
3.015
3.05
3.035
3.055
3.025
3.03
3.05
3.035
3.035
3.055
3.05
3.05
3.055
3.055
3.07
3.055
3.05
3.05
3.055
3.075
3.095
3.08
3.075
3.08
3.09
3.11
3.1
3.115
3.12
3.135
3.14
3.15
3.13
3.14
3.18
3.19
3.18
3.2
3.205
3.22
3.235
3.255
3.26
3.28
3.285
3.315
3.305
3.34
3.345
3.345
3.37
3.37
3.37
3.385
3.385
3.4
3.41
3.405
3.39
3.4
3.4
3.41
3.36
3.34
3.315
3.295
3.265
3.24
3.22
3.215
3.175
3.155
3.12
3.12
3.12
3.09
3.095
3.095
3.1
3.075
3.075
3.08
3.075
3.065
3.065
3.07
3.075
3.075
3.05
3.07
3.07
3.065
3.07
3.07
3.075
3.07
3.07
3.07
3.07
3.09
3.07
3.065
3.07
3.07
3.05
3.065
3.065
3.055
3.05
3.07
3.065
3.05
3.05
3.055
3.065
3.05
3.05
3.05
3.055
3.065
3.045
3.05
3.05
3.055
3.055
3.055
3.055
3.055
3.05
3.055
3.055
3.05
3.065
3.065
3.065
3.05
3.055
3.075
3.05
3.065
3.075
3.075
3.075
3.065
3.07
3.075
3.07
3.05
3.07
3.075
3.07
3.08
3.065
3.055
3.065
3.09
3.08
3.08
3.08
3.08
3.075
3.09
3.09
3.065
3.07
3.075
3.09
3.075
3.075
3.09
3.09
3.09
3.075
3.08
3.075
3.08
3.095
3.08
3.08
3.065
3.09
3.095
3.095
3.09
3.07
3.065
3.07
3.075
3.075
3.135
3.175
3.135
3.115
3.115
3.13
3.115
3.09
3.08
3.09
3.115
3.115
3.095
3.055
3.055
3.07
3.075
3.035
3.07
3.08
3.075
3.08
3.055
3.065
3.075
3.11
3.175
3.235
3.33
3.44
3.495
3.405
3.12
2.845
2.655
2.6
2.575
2.49
2.545
2.745
2.905
3.005
3.025
3.035
3.03
3.035
3.05
3.055
3.07
3.065
3.08
3.09
3.09
3.09
3.095
3.1
3.1
3.1
3.11
3.12
3.09
3.12
3.11
3.115
3.12
3.13
3.15
3.155
3.16
3.18
3.17
3.18
3.19
3.2
3.205
3.205
3.225
3.2
3.22
3.24
3.245
3.255
3.275
3.295
3.305
3.3
3.3
3.32
3.325
3.33
3.365
3.37
3.42
3.385
3.405
3.43
3.44
3.445
3.465
3.47
3.47
3.475
3.475
3.485
3.49
3.475
3.45
3.445
3.425
3.4
3.38
3.345
3.32
3.3
3.28
3.255
3.225
3.205
3.175
3.195
3.16
3.15
3.155
3.14
3.15
3.135
3.14
3.135
3.14
3.14
3.12
3.13
3.14
3.12
3.115
3.1
3.13
3.12
3.115
3.12
3.115
3.12
3.115
3.13
3.11
3.1
3.1
3.11
3.115
3.11
3.115
3.1
3.115
3.12
3.11
3.1
3.11
3.11
3.1
3.095
3.09
3.1
3.1
3.09
3.09
3.095
3.095
3.09
3.09
3.08
3.08
3.08
3.095
3.08
3.09
3.1
3.1
3.1
3.065
3.09
3.09
3.1
3.1
3.09
3.095
3.075
3.09
3.1
3.1
3.08
3.1
3.1
3.1
3.11
3.075
3.08
3.1
3.1
3.1
3.1
3.09
3.1
3.1
3.09
3.1
3.1
3.1
3.1
3.11
3.115
3.1
3.1
3.1
3.095
3.11
3.115
3.1
3.095
3.1
3.11
3.115
3.075
3.1
3.1
3.115
3.11
3.1
3.1
3.115
3.12
3.11
3.1
3.12
3.09
3.1
3.1
3.08
3.055
3.1
3.1
3.11
3.15
3.19
3.2
3.19
3.16
3.13
3.15
3.155
3.12
3.12
3.13
3.14
3.115
3.11
3.08
3.075
3.1
3.11
3.115
3.1
3.09
3.1
3.1
3.1
3.13
3.175
3.22
3.3
3.39
3.465
3.495
3.315
3.035
2.815
2.655
2.655
2.595
2.525
2.67
2.84
2.995
3.05
3.05
3.065
3.065
3.075
3.09
3.095
3.09
3.1
3.095
3.11
3.11
3.12
3.115
3.1
3.135
3.135
3.13
3.12
3.13
3.14
3.14
3.135
3.15
3.155
3.155
3.16
3.17
3.175
3.18
3.215
3.215
3.215
3.215
3.225
3.235
3.255
3.26
3.26
3.265
3.28
3.315
3.3
3.315
3.33
3.345
3.36
3.365
3.38
3.38
3.4
3.425
3.43
3.445
3.465
3.47
3.475
3.495
3.475
3.49
3.505
3.505
3.51
3.495
3.475
3.465
3.455
3.43
3.41
3.38
3.35
3.325
3.28
3.295
3.265
3.24
3.215
3.195
3.19
3.17
3.16
3.175
3.16
3.14
3.155
3.14
3.14
3.135
3.155
3.155
3.13
3.115
3.12
3.12
3.135
3.13
3.12
3.115
3.12
3.135
3.16
3.12
3.12
3.12
3.12
3.115
3.12
3.135
3.135
3.115
3.12
3.15
3.12
3.11
3.115
3.115
3.09
3.115
3.115
3.12
3.11
3.1
3.1
3.11
3.1
3.11
3.11
3.1
3.1
3.1
3.095
3.1
3.08
3.09
3.1
3.11
3.115
3.1
3.1
3.095
3.095
3.12
3.11
3.09
3.1
3.1
3.1
3.11
3.095
3.1
3.1
3.11
3.1
3.1
3.11
3.11
3.1
3.1
3.1
3.075
3.1
3.1
3.1
3.115
3.11
3.12
3.12
3.12
3.12
3.12
3.11
3.115
3.115
3.1
3.115
3.1
3.11
3.12
3.12
3.11
3.1
3.11
3.12
3.13
3.12
3.115
3.115
3.11
3.115
3.115
3.11
3.1
3.12
3.11
3.1
3.115
3.12
3.115
3.115
3.09
3.1
3.115
3.115
3.115
3.11
3.11
3.12
3.115
3.11
3.095
3.1
3.095
3.095
3.09
3.115
3.135
3.18
3.2
3.215
3.2
3.175
3.155
3.15
3.15
3.12
3.12
3.135
3.14
3.12
3.09
3.09
3.095
3.1
3.1
3.08
3.11
3.1
3.08
3.09
3.09
3.1
3.12
3.205
3.245
3.34
3.445
3.505
3.425
3.155
2.91
2.735
2.675
2.67
2.57
2.595
2.8
2.97
3.045
3.05
3.07
3.09
3.075
3.11
3.1
3.1
3.115
3.11
3.115
3.13
3.13
3.135
3.15
3.16
3.135
3.155
3.155
3.12
3.1
3.155
3.155
3.16
3.155
3.17
3.18
3.19
3.18
3.19
3.195
3.215
3.215
3.235
3.24
3.235
3.26
3.255
3.265
3.265
3.275
3.28
3.3
3.315
3.315
3.33
3.345
3.365
3.37
3.4
3.39
3.41
3.445
3.45
3.45
3.465
3.485
3.505
3.505
3.495
3.505
3.525
3.51
3.515
3.485
3.475
3.45
3.43
3.42
3.4
3.35
3.33
3.315
3.275
3.26
3.24
3.22
3.215
3.2
3.205
3.175
3.17
3.155
3.155
3.155
3.155
3.14
3.155
3.155
3.14
3.14
3.15
3.14
3.15
3.15
3.155
3.135
3.14
3.135
3.135
3.13
3.14
3.135
3.155
3.14
3.155
3.17
3.15
3.14
3.14
3.14
3.155
3.135
3.135
3.15
3.135
3.12
3.14
3.14
3.135
3.13
3.12
3.09
3.115
3.135
3.135
3.135
3.12
3.13
3.135
3.12
3.11
3.1
3.135
3.135
3.12
3.12
3.12
3.11
3.115
3.11
3.115
3.115
3.12
3.115
3.12
3.11
3.115
3.115
3.1
3.115
3.115
3.115
3.11
3.11
3.11
3.1
3.1
3.11
3.11
3.11
3.1
3.1
3.1
3.11
3.09
3.11
3.1
3.1
3.11
3.1
3.11
3.115
3.115
3.11
3.11
3.13
3.12
3.11
3.1
3.1
3.08
3.115
3.11
3.09
3.1
3.115
3.11
3.095
3.095
3.09
3.075
3.08
3.095
3.1
3.09
3.09
3.095
3.095
3.08
3.08
3.08
3.08
3.09
3.09
3.09
3.09
3.09
3.095
3.075
3.075
3.095
3.095
3.08
3.08
3.08
3.08
3.075
3.075
3.08
3.08
3.09
3.09
3.1
3.07
3.075
3.075
3.08
3.09
3.08
3.095
3.08
3.075
3.08
3.12
3.155
3.19
3.22
3.22
3.205
3.19
3.11
3.08
3.07
3.07
3.1
3.12
3.135
3.12
3.075
3.05
3.07
3.07
3.07
3.07
3.075
3.065
3.075
3.075
3.075
3.07
3.115
3.18
3.235
3.315
3.42
3.465
3.41
3.155
2.94
2.755
2.64
2.655
2.575
2.545
2.7
2.89
3.005
3.05
3.05
3.05
3.065
3.065
3.05
3.075
3.07
3.07
3.1
3.095
3.095
3.115
3.115
3.09
3.11
3.115
3.12
3.115
3.12
3.13
3.095
3.14
3.15
3.14
3.14
3.155
3.16
3.175
3.18
3.17
3.195
3.205
3.205
3.2
3.215
3.225
3.245
3.24
3.245
3.265
3.275
3.28
3.295
3.305
3.34
3.345
3.36
3.365
3.365
3.38
3.39
3.4
3.425
3.43
3.455
3.455
3.465
3.475
3.475
3.495
3.485
3.495
3.485
3.495
3.47
3.455
3.44
3.39
3.365
3.35
3.33
3.3
3.275
3.26
3.24
3.225
3.19
3.18
3.175
3.18
3.155
3.155
3.135
3.12
3.135
3.12
3.12
3.13
3.12
3.12
3.13
3.12
3.13
3.12
3.12
3.12
3.12
3.095
3.1
3.12
3.13
3.115
3.11
3.12
3.11
3.12
3.08
3.095
3.11
3.115
3.115
3.11
3.115
3.11
3.09
3.1
3.1
3.09
3.1
3.11
3.1
3.1
3.09
3.11
3.1
3.1
3.1
3.095
3.09
3.08
3.08
3.095
3.09
3.095
3.115
3.1
3.1
3.09
3.075
3.065
3.08
3.09
3.095
3.09
3.08
3.075
3.08
3.1
3.08
3.05
3.07
3.08
3.08
3.075
3.07
3.07
3.075
3.075
3.09
3.07
3.08
3.07
3.075
3.08
3.09
3.055
3.065
3.07
3.07
3.07
3.075
3.08
3.07
3.065
3.075
3.075
3.075
3.08
3.08
3.075
3.07
3.055
3.08
3.065
3.055
3.07
3.065
3.075
3.075
3.065
3.075
3.095
3.08
3.08
3.075
3.08
3.1
3.07
3.065
3.08
3.08
3.075
3.08
3.08
3.08
3.095
3.09
3.09
3.065
3.07
3.09
3.11
3.1
3.09
3.1
3.09
3.1
3.1
3.1
3.115
3.1
3.1
3.1
3.095
3.075
3.1
3.09
3.09
3.1
3.1
3.115
3.115
3.1
3.09
3.1
3.11
3.08
3.075
3.12
3.16
3.205
3.19
3.225
3.24
3.235
3.175
3.115
3.11
3.1
3.115
3.13
3.16
3.15
3.115
3.095
3.08
3.07
3.09
3.1
3.11
3.1
3.09
3.08
3.09
3.09
3.1
3.14
3.235
3.305
3.41
3.475
3.44
3.205
2.945
2.755
2.64
2.67
2.595
2.575
2.72
2.91
3.035
3.03
3.03
3.075
3.075
3.07
3.095
3.115
3.1
3.1
3.13
3.14
3.13
3.11
3.11
3.12
3.115
3.14
3.12
3.135
3.14
3.15
3.14
3.135
3.14
3.16
3.18
3.16
3.155
3.205
3.19
3.205
3.215
3.205
3.205
3.22
3.235
3.235
3.24
3.26
3.275
3.265
3.275
3.285
3.295
3.345
3.345
3.345
3.36
3.37
3.385
3.405
3.425
3.44
3.45
3.47
3.465
3.47
3.475
3.505
3.495
3.525
3.505
3.51
3.51
3.505
3.475
3.44
3.425
3.43
3.39
3.365
3.34
3.315
3.28
3.265
3.22
3.215
3.205
3.2
3.175
3.155
3.16
3.155
3.155
3.155
3.14
3.15
3.175
3.16
3.15
3.14
3.135
3.16
3.14
3.135
3.155
3.15
3.15
3.155
3.14
3.14
3.12
3.155
3.17
3.155
3.14
3.13
3.15
3.15
3.135
3.12
3.13
3.14
3.14
3.13
3.135
3.14
3.135
3.135
3.12
3.12
3.12
3.12
3.12
3.12
3.13
3.13
3.135
3.12
3.13
3.12
3.12
3.11
3.115
3.12
3.115
3.1
3.09
3.1
3.1
3.1
3.1
3.1
3.095
3.095
3.1
3.07
3.095
3.095
3.095
3.1
3.075
3.08
3.075
3.1
3.1
3.1
3.08
3.09
3.095
3.09
3.075
3.075
3.09
3.075
3.075
3.075
3.09
3.08
3.065
3.08
3.1
3.1
3.095
3.1
3.075
3.075
3.09
3.08
3.1
3.1
3.1
3.09
3.095
3.08
3.07
3.09
3.1
3.095
3.055
3.1
3.09
3.08
3.075
3.08
3.09
3.09
3.095
3.1
3.1
3.1
3.09
3.09
3.08
3.11
3.075
3.08
3.08
3.08
3.075
3.08
3.095
3.095
3.1
3.075
3.095
3.075
3.08
3.08
3.075
3.07
3.075
3.1
3.095
3.09
3.095
3.1
3.1
3.1
3.1
3.08
3.1
3.09
3.08
3.09
3.095
3.1
3.075
3.075
3.095
3.1
3.08
3.07
3.075
3.11
3.135
3.18
3.195
3.24
3.24
3.215
3.155
3.115
3.08
3.08
3.095
3.11
3.11
3.12
3.11
3.075
3.055
3.07
3.08
3.05
3.065
3.075
3.08
3.075
3.075
3.075
3.12
3.175
3.255
3.34
3.425
3.47
3.315
3.025
2.815
2.63
2.595
2.575
2.495
2.57
2.78
2.945
3.01
3.03
3.035
3.05
3.055
3.055
3.065
3.08
3.09
3.09
3.08
3.095
3.1
3.11
3.095
3.1
3.1
3.11
3.12
3.12
3.1
3.12
3.13
3.155
3.135
3.12
3.14
3.155
3.155
3.16
3.16
3.19
3.2
3.19
3.2
3.215
3.24
3.235
3.235
3.255
3.245
3.26
3.275
3.285
3.3
3.32
3.32
3.34
3.36
3.38
3.39
3.405
3.42
3.44
3.43
3.455
3.455
3.455
3.475
3.485
3.495
3.505
3.49
3.525
3.485
3.475
3.47
3.445
3.42
3.38
3.37
3.35
3.3
3.255
3.255
3.235
3.205
3.195
3.175
3.19
3.155
3.15
3.135
3.135
3.12
3.135
3.13
3.12
3.12
3.135
3.13
3.12
3.12
3.11
3.12
3.1
3.115
3.12
3.115
3.12
3.11
3.115
3.12
3.115
3.115
3.115
3.1
3.115
3.12
3.11
3.1
3.115
3.12
3.115
3.095
3.1
3.1
3.1
3.1
3.09
3.08
3.09
3.07
3.095
3.09
3.09
3.08
3.08
3.09
3.075
3.08
3.1
3.1
3.1
3.08
3.09
3.075
3.075
3.07
3.09
3.08
3.075
3.075
3.08
3.08
3.07
3.09
3.1
3.095
3.08
3.065
3.07
3.075
3.09
3.08
3.08
3.07
3.08
3.08
3.08
3.09
3.095
3.075
3.07
3.065
3.075
3.08
3.075
3.065
3.075
3.075
3.09
3.065
3.065
3.08
3.09
3.08
3.075
3.075
3.065
3.07
3.065
3.075
3.055
3.07
3.09
3.075
3.08
3.075
3.07
3.065
3.065
3.055
3.065
3.065
3.065
3.07
3.045
3.07
3.055
3.055
3.065
3.055
3.065
3.065
3.065
3.07
3.075
3.05
3.05
3.07
3.07
3.07
3.055
3.07
3.065
3.055
3.065
3.055
3.055
3.065
3.065
3.055
3.045
3.045
3.075
3.065
3.065
3.07
3.065
3.07
3.075
3.07
3.065
3.08
3.1
3.065
3.075
3.08
3.075
3.025
3.05
3.075
3.11
3.155
3.175
3.2
3.205
3.2
3.13
3.08
3.065
3.065
3.07
3.095
3.12
3.1
3.09
3.07
3.075
3.05
3.05
3.07
3.07
3.065
3.065
3.055
3.075
3.09
3.13
3.175
3.255
3.365
3.445
3.455
3.275
2.995
2.78
2.59
2.595
2.545
2.47
2.595
2.785
2.945
2.995
3.005
3.015
3.025
3.035
3.045
3.055
3.065
3.08
3.08
3.065
3.08
3.095
3.09
3.065
3.08
3.095
3.095
3.1
3.08
3.095
3.11
3.115
3.115
3.13
3.135
3.135
3.14
3.15
3.13
3.155
3.16
3.175
3.175
3.175
3.18
3.205
3.215
3.205
3.22
3.235
3.26
3.265
3.265
3.28
3.305
3.32
3.315
3.305
3.32
3.345
3.36
3.365
3.385
3.39
3.405
3.42
3.455
3.45
3.45
3.455
3.465
3.485
3.475
3.485
3.465
3.445
3.45
3.44
3.4
3.38
3.365
3.33
3.32
3.26
3.24
3.225
3.195
3.18
3.16
3.155
3.14
3.12
3.12
3.12
3.11
3.115
3.115
3.12
3.11
3.115
3.12
3.09
3.09
3.11
3.1
3.11
3.11
3.08
3.1
3.09
3.11
3.1
3.09
3.09
3.09
3.095
3.09
3.09
3.08
3.1
3.115
3.09
3.09
3.08
3.095
3.075
3.07
3.075
3.09
3.09
3.09
3.08
3.075
3.07
3.055
3.075
3.075
3.065
3.065
3.075
3.07
3.05
3.05
3.05
3.05
3.065
3.05
3.045
3.045
3.05
3.055
3.05
3.05
3.05
3.045
3.05
3.05
3.05
3.05
3.055
3.055
3.05
3.065
3.05
3.05
3.055
3.055
3.05
3.025
3.05
3.05
3.05
3.05
3.05
3.05
3.05
3.035
3.05
3.035
3.05
3.05
3.05
3.055
3.055
3.025
3.05
3.045
3.05
3.035
3.03
3.045
3.05
3.045
3.05
3.055
3.035
3.03
3.045
3.05
3.05
3.03
3.045
3.05
3.05
3.05
3.025
3.015
3.025
3.045
3.03
3.035
3.03
3.035
3.025
3.03
3.035
3.015
3.015
3.03
3.03
3.015
3.025
3.035
3.035
3.01
3.01
3.035
2.995
3.015
3.025
3.03
3.025
3.025
3.03
3.025
3.025
3.03
3.035
3.03
3.025
3.025
3.025
3.03
3.025
3.045
3.035
3.045
3.05
3.05
3.03
3.03
3.03
3.015
3.045
3.065
3.08
3.115
3.15
3.16
3.18
3.135
3.075
3.035
3.05
3.03
3.025
3.05
3.075
3.065
3.045
2.99
3.025
3.025
3.005
3.015
3.025
3.03
3.03
3.03
3.025
3.05
3.135
3.16
3.225
3.345
3.425
3.425
3.155
2.845
2.65
2.525
2.535
2.485
2.445
2.6
2.82
2.95
2.975
2.965
2.985
3.005
3.025
3.01
3.03
3.03
3.05
3.045
3.05
3.05
3.065
3.065
3.09
3.07
3.07
3.075
3.09
3.075
3.075
3.065
3.095
3.1
3.11
3.11
3.115
3.115
3.13
3.135
3.14
3.135
3.19
3.18
3.17
3.16
3.18
3.215
3.205
3.205
3.22
3.235
3.24
3.26
3.28
3.285
3.3
3.3
3.325
3.325
3.34
3.365
3.37
3.38
3.4
3.42
3.43
3.44
3.425
3.42
3.44
3.455
3.465
3.465
3.45
3.44
3.425
3.425
3.4
3.38
3.35
3.34
3.305
3.265
3.235
3.235
3.195
3.18
3.155
3.135
3.135
3.11
3.1
3.095
3.1
3.075
3.075
3.075
3.08
3.08
3.09
3.05
3.09
3.09
3.075
3.07
3.07
3.07
3.075
3.08
3.08
3.075
3.07
3.065
3.065
3.065
3.075
3.05
3.065
3.065
3.065
3.075
3.07
3.05
3.045
3.05
3.055
3.055
3.055
3.05
3.055
3.055
3.045
3.045
3.05
3.055
3.055
3.05
3.05
3.05
3.055
3.05
3.025
3.045
3.015
3.05
3.045
3.045
3.05
3.03
3.025
3.03
3.03
3.035
3.045
3.075
3.035
3.03
3.025
3.035
3.01
3.035
3.035
3.025
3.035
3.05
3.035
3.03
3.025
3.035
3.035
3.035
3.03
3.025
3.025
3.03
3.03
3.045
3.045
3.045
3.03
3.03
3.035
3.03
3.035
3.025
3.035
3.045
3.035
3.05
3.05
3.03
3.03
3.035
3.045
3.03
3.03
3.05
3.065
3.05
3.025
3.025
3.035
3.025
3.05
3.03
3.035
3.035
3.015
3.045
3.05
3.03
3.03
3.045
3.035
3.035
3.03
3.03
3.05
3.015
3.05
3.035
3.03
3.035
3.05
3.03
3.03
3.035
3.05
3.05
3.03
3.025
3.03
3.05
3.05
3.03
3.03
3.045
3.05
3.05
3.045
3.035
3.03
3.045
3.05
3.05
3.01
3.015
3.05
3.075
3.11
3.12
3.16
3.17
3.18
3.14
3.095
3.05
3.045
3.045
3.045
3.08
3.07
3.07
3.035
3.015
3.025
3.03
3.045
3.03
3.035
3.03
3.03
3.025
3.025
3.035
3.1
3.175
3.265
3.35
3.425
3.42
3.2
2.89
2.66
2.495
2.525
2.485
2.425
2.565
2.765
2.905
2.965
2.99
2.985
2.995
3.025
3.03
3.03
3.055
3.05
3.055
3.07
3.055
3.055
3.045
3.07
3.075
3.075
3.075
3.075
3.075
3.08
3.075
3.09
3.1
3.135
3.11
3.11
3.115
3.135
3.11
3.12
3.135
3.155
3.16
3.155
3.18
3.19
3.205
3.215
3.225
3.235
3.225
3.225
3.24
3.245
3.295
3.295
3.295
3.315
3.32
3.33
3.345
3.37
3.39
3.405
3.425
3.425
3.445
3.445
3.455
3.455
3.47
3.47
3.475
3.47
3.47
3.445
3.44
3.43
3.42
3.39
3.345
3.34
3.3
3.26
3.235
3.215
3.19
3.16
3.155
3.135
3.12
3.12
3.115
3.115
3.1
3.1
3.1
3.08
3.1
3.095
3.095
3.11
3.1
3.095
3.09
3.1
3.11
3.09
3.095
3.1
3.1
3.1
3.1
3.09
3.095
3.08
3.08
3.1
3.09
3.09
3.095
3.11
3.095
3.08
3.075
3.09
3.075
3.075
3.09
3.08
3.075
3.09
3.08
3.09
3.07
3.055
3.055
3.05
3.07
3.08
3.045
3.055
3.075
3.09
3.075
3.065
3.075
3.08
3.08
3.065
3.07
3.065
3.045
3.05
3.065
3.065
3.05
3.075
3.075
3.08
3.08
3.065
3.05
3.045
3.055
3.075
3.075
3.075
3.07
3.065
3.05
3.065
3.065
3.07
3.065
3.065
3.055
3.05
3.065
3.075
3.07
3.05
3.05
3.03
3.07
3.075
3.065
3.065
3.055
3.065
3.05
3.035
3.035
3.035
3.075
3.055
3.055
3.055
3.055
3.025
3.05
3.05
3.045
3.035
3.05
3.045
3.045
3.035
3.035
3.05
3.035
3.035
3.035
3.05
3.05
3.035
3.035
3.035
3.055
3.05
3.025
3.015
3.025
3.03
3.035
3.045
3.035
3.035
3.045
3.05
3.05
3.035
3.05
3.025
3.015
3.05
3.075
3.1
3.13
3.155
3.155
3.15
3.095
3.065
3.03
3.025
3.03
3.045
3.065
3.065
3.05
3.025
3.005
3.015
3.025
3.045
3.035
3.03
3.005
3.025
3.025
3.05
3.09
3.15
3.195
3.295
3.365
3.41
3.315
3.005
2.67
2.41
2.35
2.4
2.36
2.39
2.6
2.765
2.88
2.945
2.99
2.995
2.985
3.005
3.005
3.005
3.025
3.025
3.035
3.045
3.03
3.035
3.03
3.045
3.05
3.055
3.07
3.055
3.07
3.055
3.075
3.045
3.075
3.075
3.075
3.1
3.1
3.11
3.115
3.12
3.13
3.135
3.14
3.155
3.175
3.175
3.175
3.19
3.18
3.19
3.2
3.225
3.225
3.235
3.24
3.26
3.285
3.295
3.295
3.305
3.32
3.325
3.35
3.37
3.38
3.4
3.39
3.4
3.42
3.425
3.425
3.43
3.43
3.42
3.44
3.405
3.37
3.35
3.34
3.305
3.275
3.24
3.205
3.19
3.17
3.155
3.12
3.1
3.08
3.09
3.055
3.065
3.065
3.065
3.05
3.045
3.05
3.05
3.05
3.05
3.035
3.035
3.03
3.03
3.05
3.055
3.035
3.05
3.05
3.055
3.035
3.03
3.05
3.05
3.05
3.045
3.045
3.035
3.03
3.035
3.035
3.045
3.025
3.025
3.035
3.045
3.035
3.03
3.025
3.025
3.025
3.01
3.015
2.995
3.025
3.015
2.995
3.03
3.03
3.025
3.015
3.015
3.025
3.015
3.015
3.01
3.005
3.005
3.015
2.975
2.995
3.01
3.025
3.025
3.015
3.015
3.025
3.015
3.01
3.01
3.005
3.005
3.015
3.025
3.015
3.005
3.025
3.015
3.03
3.025
3.025
3.015
3.01
3.01
3.005
3.015
2.995
3.01
3.01
3.015
3.015
2.995
3.015
3.025
3.015
3.015
3.025
3.035
3.03
3.025
3.025
3.015
2.975
3.01
3.025
3.025
3.015
3.025
3.025
3.025
3.025
3.025
3.03
3.015
3.025
3.025
3.045
3.03
3.005
3.03
3.035
3.03
3.025
3.025
3.015
3.015
3.025
3.025
3.03
3.015
3.005
2.975
2.985
2.99
2.97
2.985
3.045
3.065
3.025
3.025
3.035
3.045
3.035
3.025
3.025
3.005
3.025
3.025
3.025
3.025
3.01
3.005
3.015
3.015
3.025
3.03
3.035
3.015
3.015
3.025
3.03
3.05
3.12
3.195
3.3
3.38
3.365
3.155
2.89
2.715
2.565
2.565
2.535
2.51
2.64
2.805
2.91
2.94
2.94
2.95
2.99
2.995
2.995
3.01
3.025
3.015
3.025
3.025
3.015
3.03
3.03
3.025
3.025
3.03
3.035
3.05
3.035
3.035
3.05
3.065
3.07
3.07
3.055
3.07
3.055
3.09
3.08
3.09
3.095
3.115
3.12
3.115
3.12
3.135
3.135
3.135
3.155
3.17
3.19
3.18
3.215
3.215
3.215
3.225
3.24
3.255
3.275
3.285
3.275
3.3
3.315
3.32
3.345
3.36
3.36
3.365
3.39
3.39
3.39
3.39
3.385
3.38
3.37
3.365
3.345
3.305
3.28
3.295
3.26
3.235
3.2
3.16
3.15
3.115
3.095
3.07
3.075
3.07
3.07
3.05
3.045
3.03
3.05
3.025
3.03
3.025
3.035
3.045
3.035
3.035
3.035
3.03
3.03
3.035
3.025
3.025
3.035
3.045
3.045
3.015
3.03
3.045
3.025
3.025
3.03
3.01
3.025
3.035
3.025
3.015
3.005
3.015
3.03
3.025
3.025
3.025
3.03
3.015
2.995
2.995
3.01
2.995
2.995
2.995
3.005
3.005
2.99
3.005
2.99
2.995
2.995
2.985
2.99
2.995
2.995
3.01
3.01
2.995
3.005
2.995
2.99
3.005
2.995
3.01
2.995
3.005
3.01
2.995
2.995
3.015
2.995
2.995
2.995
2.995
2.995
2.995
3.005
3.01
2.995
3.005
3.015
3.005
2.995
3.005
3.015
3.015
3.005
3.01
3.01
3.005
2.995
3.015
3.015
3.01
3.005
3.025
3.015
3.005
3.005
3.01
3.015
3.025
3.01
3.005
3.01
2.995
3.025
3.015
3.025
3.015
3.025
3.025
3.025
3.005
2.995
3.025
3.015
3.025
3.015
3.025
3.03
2.995
3.015
3.005
3.005
3.01
2.975
2.955
2.99
2.995
2.97
2.99
3.035
3.07
3.025
2.995
3.01
3.025
3.03
3.025
3.005
3.005
3.025
3.025
3.005
2.995
2.99
2.97
2.97
3.005
3.005
3.005
3.01
3.005
3.005
2.995
3.01
3.05
3.1
3.205
3.275
3.37
3.4
3.265
2.965
2.76
2.555
2.495
2.51
2.445
2.49
2.69
2.85
2.945
2.95
2.95
2.965
2.975
2.995
2.975
2.965
2.995
3.005
3.01
3.025
3.03
3.025
3.025
3.03
3.045
3.035
3.05
3.055
3.075
3.065
3.07
3.065
3.075
3.08
3.07
3.09
3.1
3.12
3.12
3.115
3.115
3.135
3.115
3.135
3.15
3.15
3.155
3.175
3.19
3.205
3.22
3.225
3.225
3.235
3.26
3.285
3.295
3.295
3.33
3.33
3.33
3.345
3.365
3.385
3.41
3.42
3.425
3.425
3.43
3.45
3.465
3.445
3.44
3.44
3.43
3.39
3.38
3.36
3.33
3.295
3.275
3.245
3.215
3.195
3.17
3.17
3.155
3.13
3.11
3.1
3.09
3.095
3.09
3.08
3.09
3.1
3.095
3.08
3.08
3.075
3.07
3.05
3.09
3.095
3.07
3.065
3.08
3.09
3.075
3.095
3.1
3.095
3.075
3.075
3.08
3.08
3.09
3.05
3.065
3.07
3.07
3.08
3.08
3.075
3.065
3.05
3.05
3.055
3.05
3.05
3.065
3.05
3.045
3.045
3.05
3.055
3.05
3.045
3.05
3.045
3.03
3.035
3.065
3.05
3.025
3.045
3.045
3.035
3.05
3.05
3.055
3.05
3.05
3.035
3.05
3.065
3.05
3.05
3.05
3.055
3.015
3.045
3.065
3.07
3.055
3.07
3.065
3.065
3.045
3.05
3.05
3.05
3.045
3.07
3.075
3.07
3.035
3.05
3.055
3.065
3.075
3.07
3.075
3.065
3.075
3.07
3.035
3.05
3.065
3.065
3.07
3.075
3.075
3.065
3.065
3.065
3.065
3.065
3.075
3.075
3.075
3.065
3.065
3.035
3.075
3.075
3.075
3.07
3.055
3.035
3.015
3.015
3.025
3.045
3.025
3.05
3.08
3.08
3.055
3.025
3.055
3.07
3.07
3.07
3.055
3.055
3.055
3.03
3.025
3.03
3.025
3.03
3.03
3.05
3.055
3.05
3.045
3.05
3.05
3.05
3.055
3.07
3.095
3.17
3.225
3.295
3.38
3.43
3.41
3.155
2.805
2.53
2.465
2.495
2.44
2.44
2.62
2.775
2.9
2.97
3.015
3.025
2.995
3.015
3.025
3.045
3.05
3.045
3.055
3.065
3.07
3.075
3.075
3.075
3.07
3.065
3.07
3.075
3.075
3.08
3.1
3.12
3.12
3.115
3.11
3.1
3.115
3.13
3.14
3.14
3.15
3.155
3.16
3.17
3.19
3.195
3.19
3.195
3.19
3.195
3.225
3.22
3.235
3.245
3.245
3.285
3.295
3.3
3.305
3.315
3.36
3.36
3.37
3.37
3.38
3.38
3.4
3.42
3.42
3.405
3.42
3.445
3.43
3.425
3.42
3.39
3.38
3.345
3.315
3.295
3.285
3.265
3.24
3.195
3.175
3.155
3.12
3.1
3.1
3.11
3.1
3.09
3.07
3.07
3.065
3.07
3.065
3.08
3.065
3.05
3.055
3.065
3.055
3.055
3.055
3.065
3.065
3.05
3.075
3.065
3.055
3.065
3.07
3.065
3.035
3.065
3.07
3.065
3.055
3.035
3.05
3.075
3.08
3.065
3.065
3.05
3.07
3.065
3.055
3.055
3.035
3.07
3.07
3.045
3.035
3.05
3.055
3.055
3.055
3.045
3.035
3.035
3.05
3.035
3.03
3.035
3.035
3.035
3.03
3.035
3.045
3.025
3.025
3.025
3.03
3.035
3.045
3.05
3.045
3.035
3.035
3.045
3.025
3.03
3.03
3.025
3.025
3.03
3.035
3.025
3.05
3.05
3.03
3.005
3.035
3.05
3.05
3.03
3.03
3.045
3.03
3.035
3.03
3.045
3.05
3.035
3.03
3.045
3.055
3.03
3.055
3.05
3.05
3.05
3.055
3.05
3.035
3.055
3.055
3.07
3.065
3.05
3.035
3.035
3.05
3.05
3.035
3.045
3.05
3.065
3.065
3.07
3.05
3.055
3.05
3.055
3.025
3.045
3.045
3.015
3.005
3.01
3.005
2.985
2.985
3.015
3.05
3.065
3.01
3.01
3.035
3.055
3.03
3.05
3.045
3.045
3.035
3.035
3.015
3.01
3.015
3.025
3.05
3.035
3.05
3.045
3.035
3.045
3.035
3.055
3.055
3.05
3.12
3.195
3.255
3.365
3.42
3.39
3.18
2.93
2.76
2.63
2.64
2.6
2.55
2.66
2.84
2.955
2.995
3.005
3.015
3.025
3.035
3.05
3.075
3.035
3.065
3.075
3.09
3.095
3.09
3.095
3.1
3.1
3.1
3.095
3.09
3.075
3.095
3.095
3.11
3.08
3.12
3.14
3.13
3.12
3.12
3.135
3.15
3.155
3.16
3.155
3.16
3.18
3.18
3.195
3.205
3.22
3.225
3.235
3.225
3.235
3.26
3.265
3.285
3.285
3.295
3.32
3.345
3.35
3.365
3.37
3.39
3.405
3.405
3.4
3.43
3.44
3.425
3.43
3.44
3.445
3.445
3.44
3.44
3.39
3.37
3.345
3.305
3.3
3.28
3.24
3.22
3.2
3.18
3.16
3.135
3.12
3.115
3.115
3.09
3.095
3.095
3.095
3.1
3.09
3.095
3.09
3.08
3.08
3.08
3.065
3.075
3.075
3.09
3.08
3.07
3.075
3.075
3.08
3.09
3.095
3.08
3.07
3.07
3.065
3.08
3.065
3.1
3.075
3.065
3.075
3.08
3.08
3.09
3.075
3.065
3.07
3.095
3.075
3.065
3.05
3.065
3.03
3.055
3.055
3.065
3.055
3.065
3.07
3.065
3.055
3.055
3.055
3.065
3.05
3.05
3.05
3.055
3.035
3.065
3.07
3.075
3.065
3.055
3.07
3.075
3.065
3.05
3.055
3.065
3.07
3.07
3.065
3.055
3.055
3.075
3.075
3.08
3.065
3.065
3.075
3.08
3.075
3.075
3.08
3.055
3.07
3.065
3.075
3.075
3.07
3.075
3.075
3.07
3.08
3.065
3.075
3.08
3.08
3.075
3.075
3.055
3.075
3.08
3.095
3.1
3.09
3.075
3.075
3.09
3.08
3.1
3.1
3.095
3.08
3.08
3.095
3.075
3.09
3.08
3.08
3.08
3.08
3.08
3.09
3.09
3.095
3.08
3.07
3.075
3.08
3.08
3.08
3.075
3.08
3.08
3.095
3.08
3.095
3.095
3.095
3.08
3.09
3.075
3.03
3.035
3.045
3.05
3.05
3.035
3.07
3.1
3.1
3.08
3.07
3.095
3.115
3.1
3.095
3.1
3.075
3.1
3.08
3.075
3.075
3.075
3.075
3.08
3.1
3.1
3.11
3.1
3.09
3.08
3.075
3.1
3.1
3.15
3.205
3.28
3.4
3.485
3.475
3.285
3.045
2.87
2.72
2.69
2.675
2.61
2.695
2.87
3.01
3.05
3.035
3.055
3.095
3.095
3.12
3.1
3.1
3.11
3.13
3.11
3.12
3.135
3.155
3.155
3.155
3.155
3.135
3.155
3.17
3.175
3.17
3.16
3.16
3.18
3.175
3.205
3.215
3.215
3.215
3.225
3.22
3.205
3.215
3.24
3.245
3.255
3.265
3.28
3.295
3.295
3.295
3.3
3.315
3.345
3.35
3.365
3.365
3.39
3.4
3.405
3.425
3.45
3.485
3.485
3.47
3.49
3.495
3.51
3.53
3.53
3.525
3.525
3.525
3.525
3.525
3.505
3.475
3.445
3.44
3.4
3.37
3.33
3.3
3.285
3.265
3.24
3.225
3.205
3.2
3.18
3.18
3.17
3.155
3.155
3.17
3.17
3.16
3.17
3.16
3.14
3.14
3.14
3.15
3.155
3.14
3.16
3.14
3.135
3.12
3.14
3.14
3.14
3.15
3.15
3.12
3.14
3.155
3.135
3.13
3.13
3.12
3.1
3.115
3.135
3.14
3.12
3.12
3.12
3.11
3.12
3.12
3.12
3.115
3.12
3.115
3.115
3.115
3.09
3.11
3.12
3.115
3.115
3.11
3.1
3.1
3.09
3.11
3.12
3.1
3.115
3.115
3.11
3.11
3.1
3.1
3.115
3.12
3.115
3.11
3.11
3.1
3.1
3.1
3.1
3.075
3.11
3.11
3.1
3.09
3.095
3.11
3.12
3.12
3.11
3.11
3.115
3.09
3.09
3.11
3.1
3.075
3.1
3.1
3.08
3.1
3.115
3.13
3.12
3.1
3.11
3.115
3.115
3.115
3.115
3.11
3.1
3.09
3.1
3.09
3.1
3.12
3.1
3.09
3.115
3.115
3.12
3.115
3.115
3.11
3.11
3.11
3.11
3.095
3.1
3.12
3.115
3.12
3.1
3.09
3.11
3.1
3.1
3.1
3.08
3.1
3.09
3.095
3.1
3.1
3.12
3.1
3.075
3.08
3.115
3.11
3.1
3.095
3.11
3.11
3.055
3.055
3.075
3.08
3.055
3.075
3.12
3.14
3.115
3.11
3.115
3.13
3.13
3.12
3.08
3.1
3.1
3.11
3.09
3.09
3.095
3.075
3.07
3.095
3.1
3.09
3.1
3.08
3.1
3.095
3.115
3.15
3.2
3.24
3.34
3.41
3.45
3.41
3.155
2.84
2.59
2.505
2.565
2.495
2.525
2.69
2.84
2.95
3.035
3.07
3.05
3.075
3.075
3.095
3.1
3.095
3.1
3.115
3.135
3.1
3.13
3.12
3.12
3.135
3.12
3.12
3.13
3.135
3.14
3.14
3.16
3.16
3.175
3.175
3.16
3.19
3.18
3.17
3.16
3.19
3.205
3.22
3.235
3.235
3.235
3.22
3.26
3.245
3.255
3.265
3.285
3.305
3.32
3.33
3.325
3.34
3.345
3.365
3.38
3.385
3.4
3.4
3.445
3.445
3.45
3.45
3.455
3.47
3.47
3.47
3.47
3.465
3.445
3.44
3.43
3.425
3.42
3.39
3.37
3.34
3.315
3.275
3.24
3.215
3.19
3.18
3.175
3.16
3.135
3.13
3.12
3.12
3.115
3.12
3.1
3.1
3.11
3.115
3.11
3.1
3.095
3.09
3.1
3.11
3.11
3.075
3.11
3.115
3.12
3.12
3.11
3.115
3.115
3.1
3.11
3.11
3.1
3.1
3.11
3.12
3.12
3.095
3.11
3.095
3.1
3.1
3.1
3.1
3.08
3.08
3.1
3.1
3.09
3.08
3.095
3.09
3.1
3.07
3.08
3.095
3.1
3.09
3.075
3.075
3.075
3.08
3.075
3.08
3.055
3.075
3.07
3.075
3.075
3.07
3.09
3.08
3.075
3.08
3.075
3.095
3.07
3.08
3.075
3.08
3.05
3.08
3.09
3.08
3.08
3.075
3.055
3.065
3.08
3.08
3.08
3.075
3.065
3.075
3.075
3.08
3.05
3.075
3.08
3.08
3.075
3.075
3.075
3.075
3.07
3.08
3.075
3.065
3.075
3.075
3.07
3.07
3.065
3.07
3.075
3.075
3.075
3.07
3.075
3.08
3.075
3.075
3.08
3.05
3.05
3.07
3.07
3.07
3.07
3.075
3.08
3.075
3.075
3.065
3.075
3.07
3.065
3.07
3.07
3.055
3.07
3.07
3.075
3.08
3.07
3.055
3.065
3.065
3.07
3.075
3.075
3.07
3.055
3.075
3.05
3.005
3.025
3.035
3.025
3.035
3.1
3.115
3.07
3.055
3.08
3.095
3.075
3.055
3.055
3.055
3.07
3.05
3.05
3.07
3.05
3.05
3.05
3.05
3.065
3.075
3.065
3.065
3.045
3.055
3.07
3.1
3.16
3.235
3.315
3.41
3.43
3.285
3.01
2.825
2.675
2.635
2.64
2.575
2.595
2.78
2.93
2.995
3.005
3.015
3.025
3.05
3.07
3.07
3.075
3.075
3.09
3.095
3.1
3.1
3.08
3.09
3.1
3.115
3.12
3.13
3.12
3.12
3.135
3.135
3.135
3.11
3.135
3.15
3.155
3.15
3.155
3.17
3.175
3.16
3.18
3.195
3.205
3.2
3.205
3.22
3.235
3.265
3.26
3.265
3.275
3.265
3.28
3.315
3.32
3.315
3.33
3.36
3.385
3.385
3.405
3.42
3.42
3.445
3.445
3.445
3.45
3.455
3.47
3.47
3.465
3.47
3.45
3.425
3.405
3.39
3.37
3.35
3.305
3.265
3.24
3.235
3.205
3.18
3.16
3.14
3.135
3.12
3.115
3.12
3.09
3.1
3.11
3.11
3.1
3.1
3.1
3.09
3.095
3.09
3.1
3.09
3.095
3.09
3.1
3.11
3.075
3.09
3.09
3.08
3.09
3.095
3.1
3.1
3.1
3.08
3.09
3.08
3.08
3.09
3.1
3.095
3.07
3.095
3.09
3.08
3.08
3.075
3.07
3.08
3.08
3.07
3.08
3.08
3.075
3.07
3.075
3.08
3.055
3.075
3.08
3.075
3.065
3.075
3.08
3.07
3.07
3.075
3.07
3.07
3.09
3.075
3.075
3.09
3.08
3.08
3.065
3.065
3.07
3.075
3.075
3.07
3.055
3.05
3.075
3.055
3.065
3.07
3.075
3.065
3.055
3.065
3.08
3.08
3.08
3.075
3.065
3.055
3.065
3.075
3.065
3.055
3.065
3.07
3.07
3.075
3.05
3.05
3.065
3.075
3.055
3.065
3.055
3.08
3.065
3.07
3.07
3.065
3.065
3.075
3.075
3.07
3.075
3.08
3.05
3.055
3.065
3.07
3.045
3.055
3.07
3.07
3.065
3.055
3.065
3.055
3.07
3.075
3.065
3.055
3.05
3.055
3.065
3.075
3.045
3.055
3.055
3.075
3.055
3.055
3.065
3.065
3.065
3.065
3.05
3.055
3.05
3.05
3.065
3.07
3.065
3.07
3.055
3.01
3.025
3.05
3.035
3.025
3.07
3.12
3.11
3.05
3.075
3.1
3.1
3.09
3.07
3.065
3.08
3.075
3.055
3.055
3.065
3.055
3.035
3.07
3.075
3.065
3.08
3.07
3.07
3.08
3.075
3.09
3.155
3.22
3.315
3.425
3.45
3.39
3.135
2.88
2.7
2.595
2.615
2.545
2.53
2.7
2.89
3.01
3.03
3.025
3.045
3.05
3.07
3.075
3.065
3.065
3.08
3.08
3.08
3.09
3.11
3.12
3.115
3.115
3.12
3.12
3.12
3.13
3.115
3.155
3.15
3.14
3.14
3.16
3.175
3.18
3.18
3.19
3.195
3.2
3.205
3.205
3.215
3.215
3.245
3.24
3.255
3.245
3.26
3.265
3.3
3.315
3.305
3.315
3.33
3.36
3.385
3.39
3.385
3.405
3.425
3.445
3.455
3.465
3.465
3.47
3.485
3.495
3.495
3.505
3.51
3.53
3.505
3.475
3.465
3.455
3.44
3.39
3.365
3.345
3.32
3.285
3.265
3.24
3.215
3.195
3.16
3.195
3.16
3.155
3.135
3.12
3.115
3.115
3.13
3.13
3.115
3.11
3.11
3.12
3.115
3.1
3.095
3.09
3.115
3.115
3.135
3.12
3.11
3.12
3.12
3.11
3.1
3.1
3.095
3.11
3.1
3.1
3.1
3.095
3.1
3.095
3.095
3.095
3.095
3.08
3.095
3.1
3.12
3.12
3.07
3.08
3.1
3.1
3.1
3.095
3.1
3.08
3.1
3.1
3.1
3.09
3.08
3.095
3.11
3.11
3.075
3.1
3.1
3.08
3.08
3.09
3.095
3.09
3.075
3.08
3.1
3.09
3.095
3.08
3.09
3.095
3.095
3.1
3.1
3.09
3.08
3.09
3.08
3.075
3.09
3.1
3.1
3.1
3.09
3.08
3.08
3.1
3.1
3.1
3.08
3.08
3.1
3.08
3.075
3.08
3.08
3.09
3.11
3.075
3.09
3.08
3.095
3.11
3.1
3.09
3.09
3.1
3.1
3.1
3.1
3.11
3.095
3.095
3.11
3.075
3.095
3.11
3.08
3.075
3.1
3.11
3.1
3.1
3.1
3.1
3.09
3.1
3.11
3.095
3.1
3.09
3.095
3.1
3.1
3.09
3.1
3.1
3.1
3.075
3.055
3.065
3.055
3.065
3.065
3.08
3.12
3.11
3.09
3.08
3.09
3.09
3.09
3.115
3.075
3.09
3.1
3.08
3.05
3.075
3.065
3.055
3.075
3.07
3.065
3.075
3.055
3.055
3.075
3.075
3.1
3.155
3.225
3.295
3.42
3.44
3.405
3.155
2.84
2.58
2.47
2.53
2.475
2.485
2.655
2.82
2.93
3.005
3.045
3.055
3.055
3.055
3.07
3.08
3.09
3.09
3.09
3.1
3.11
3.1
3.1
3.095
3.12
3.115
3.12
3.13
3.12
3.14
3.15
3.135
3.135
3.155
3.16
3.15
3.16
3.175
3.175
3.205
3.195
3.2
3.195
3.2
3.205
3.22
3.235
3.235
3.235
3.235
3.26
3.265
3.275
3.295
3.315
3.305
3.315
3.33
3.36
3.35
3.365
3.38
3.39
3.41
3.425
3.42
3.45
3.45
3.45
3.455
3.47
3.465
3.465
3.455
3.445
3.425
3.4
3.39
3.38
3.35
3.32
3.285
3.285
3.24
3.215
3.18
3.17
3.17
3.12
3.115
3.12
3.13
3.115
3.12
3.095
3.095
3.1
3.1
3.07
3.095
3.1
3.1
3.1
3.095
3.08
3.07
3.08
3.1
3.1
3.09
3.095
3.1
3.1
3.09
3.09
3.11
3.1
3.1
3.1
3.08
3.1
3.1
3.095
3.08
3.08
3.055
3.1
3.1
3.08
3.075
3.07
3.07
3.075
3.075
3.075
3.075
3.11
3.075
3.065
3.075
3.08
3.05
3.07
3.07
3.075
3.075
3.08
3.065
3.065
3.065
3.08
3.09
3.08
3.065
3.065
3.07
3.075
3.05
3.055
3.065
3.075
3.075
3.07
3.05
3.065
3.075
3.07
3.065
3.055
3.075
3.075
3.065
3.055
3.055
3.055
3.055
3.075
3.05
3.065
3.07
3.075
3.055
3.055
3.065
3.035
3.075
3.055
3.065
3.075
3.07
3.065
3.065
3.065
3.075
3.075
3.075
3.065
3.055
3.055
3.07
3.05
3.07
3.07
3.08
3.07
3.08
3.09
3.08
3.095
3.09
3.075
3.065
3.08
3.1
3.1
3.095
3.08
3.08
3.09
3.09
3.08
3.095
3.095
3.08
3.08
3.07
3.08
3.075
3.075
3.055
3.025
3.035
3.05
3.035
3.055
3.095
3.12
3.1
3.09
3.11
3.115
3.1
3.08
3.045
3.055
3.09
3.095
3.07
3.065
3.05
3.05
3.07
3.08
3.075
3.075
3.08
3.075
3.065
3.065
3.05
3.11
3.17
3.245
3.37
3.44
3.44
3.235
2.955
2.775
2.62
2.63
2.595
2.55
2.66
2.84
2.955
2.995
3.015
3.03
3.045
3.05
3.05
3.05
3.07
3.07
3.075
3.065
3.075
3.07
3.09
3.09
3.08
3.095
3.09
3.1
3.11
3.11
3.13
3.12
3.135
3.14
3.13
3.115
3.155
3.155
3.155
3.18
3.18
3.19
3.18
3.2
3.205
3.205
3.205
3.24
3.24
3.24
3.26
3.3
3.295
3.3
3.295
3.32
3.34
3.365
3.365
3.385
3.39
3.4
3.39
3.42
3.44
3.45
3.455
3.47
3.47
3.475
3.485
3.47
3.45
3.465
3.465
3.45
3.43
3.39
3.39
3.33
3.305
3.28
3.245
3.225
3.19
3.17
3.155
3.135
3.13
3.115
3.115
3.11
3.11
3.11
3.075
3.08
3.095
3.1
3.09
3.09
3.095
3.095
3.08
3.09
3.09
3.08
3.1
3.09
3.095
3.1
3.075
3.075
3.07
3.075
3.1
3.09
3.07
3.08
3.095
3.08
3.095
3.075
3.075
3.075
3.08
3.1
3.075
3.065
3.07
3.075
3.08
3.075
3.08
3.08
3.075
3.075
3.075
3.055
3.075
3.065
3.055
3.075
3.075
3.075
3.07
3.055
3.055
3.075
3.08
3.08
3.065
3.045
3.075
3.065
3.075
3.075
3.075
3.065
3.075
3.065
3.05
3.065
3.07
3.075
3.065
3.065
3.075
3.075
3.075
3.055
3.075
3.08
3.075
3.075
3.075
3.08
3.07
3.075
3.065
3.07
3.05
3.09
3.075
3.075
3.075
3.07
3.08
3.075
3.07
3.065
3.07
3.1
3.065
3.055
3.075
3.075
3.055
3.07
3.065
3.075
3.08
3.08
3.08
3.07
3.055
3.075
3.09
3.08
3.07
3.065
3.07
3.07
3.055
3.065
3.075
3.07
3.08
3.075
3.075
3.075
3.065
3.07
3.09
3.08
3.075
3.08
3.075
3.075
3.075
3.07
3.03
3.035
3.055
3.05
3.045
3.095
3.135
3.115
3.1
3.08
3.12
3.115
3.09
3.075
3.07
3.1
3.09
3.065
3.075
3.075
3.065
3.075
3.08
3.08
3.09
3.075
3.09
3.09
3.075
3.08
3.11
3.19
3.26
3.345
3.44
3.47
3.39
3.11
2.84
2.62
2.595
2.595
2.515
2.55
2.74
2.9
3.005
3.025
3.05
3.07
3.075
3.09
3.075
3.1
3.1
3.12
3.12
3.115
3.115
3.12
3.115
3.12
3.155
3.16
3.14
3.135
3.135
3.13
3.16
3.155
3.17
3.17
3.17
3.19
3.19
3.19
3.205
3.225
3.225
3.225
3.22
3.235
3.245
3.26
3.275
3.265
3.285
3.3
3.285
3.285
3.315
3.34
3.33
3.36
3.365
3.37
3.39
3.4
3.425
3.445
3.455
3.475
3.47
3.465
3.475
3.495
3.49
3.475
3.495
3.505
3.485
3.505
3.47
3.445
3.42
3.4
3.37
3.325
3.305
3.3
3.265
3.235
3.215
3.19
3.175
3.16
3.14
3.16
3.12
3.115
3.115
3.14
3.115
3.11
3.115
3.12
3.13
3.12
3.115
3.115
3.115
3.12
3.11
3.11
3.13
3.12
3.11
3.12
3.13
3.115
3.1
3.1
3.12
3.11
3.11
3.1
3.11
3.11
3.115
3.1
3.08
3.095
3.1
3.11
3.115
3.115
3.1
3.11
3.11
3.095
3.05
3.08
3.09
3.09
3.095
3.08
3.075
3.08
3.095
3.095
3.075
3.075
3.075
3.08
3.095
3.09
3.055
3.09
3.08
3.09
3.09
3.095
3.075
3.065
3.055
3.065
3.07
3.07
3.075
3.09
3.08
3.09
3.08
3.07
3.075
3.075
3.08
3.09
3.08
3.08
3.09
3.1
3.08
3.05
3.065
3.065
3.075
3.08
3.05
3.075
3.08
3.08
3.075
3.08
3.075
3.07
3.08
3.08
3.075
3.045
3.08
3.09
3.075
3.065
3.07
3.08
3.095
3.075
3.075
3.09
3.075
3.07
3.065
3.065
3.075
3.065
3.075
3.075
3.075
3.07
3.065
3.03
3.015
3.025
3.035
3.045
3.01
3.005
3.025
3.05
3.035
3.005
3.015
3.05
3.075
3.055
3.05
3.065
3.065
3.05
3.045
3.03
2.985
3.01
3.03
3.05
3.055
3.03
3.05
3.05
3.05
3.07
3.065
3.075
3.09
3.17
3.22
3.305
3.425
3.445
3.35
3.065
2.765
2.55
2.49
2.525
2.45
2.505
2.7
2.85
2.945
2.995
2.995
3.015
3.025
3.035
3.035
3.05
3.065
3.075
3.075
3.07
3.08
3.09
3.07
3.07
3.08
3.095
3.09
3.095
3.075
3.095
3.1
3.1
3.115
3.12
3.12
3.12
3.13
3.15
3.135
3.12
3.155
3.18
3.17
3.16
3.18
3.19
3.19
3.205
3.205
3.205
3.235
3.255
3.26
3.245
3.265
3.315
3.295
3.3
3.32
3.34
3.345
3.365
3.365
3.37
3.4
3.42
3.42
3.425
3.425
3.425
3.42
3.42
3.42
3.405
3.4
3.38
3.34
3.33
3.315
3.275
3.245
3.205
3.215
3.18
3.155
3.135
3.11
3.075
3.075
3.09
3.07
3.035
3.05
3.065
3.045
3.05
3.05
3.055
3.025
3.045
3.035
3.035
3.035
3.035
3.035
3.035
3.045
3.035
3.05
3.05
3.03
3.03
3.035
3.05
3.015
3.025
3.025
3.03
3.03
3.035
3.025
3.025
3.025
3.015
3.025
3.01
2.995
3.005
2.995
2.995
2.99
2.995
2.99
2.995
3.01
2.995
2.985
3.005
3.015
3.01
3.01
2.97
3.01
3.005
3.015
3.01
2.995
3.015
3.015
3.025
3.005
3.005
3.005
3.015
3.01
3.015
3.025
3.01
3.015
3.015
3.015
3.015
3.015
3.005
2.995
3.015
3.015
3.015
3.015
3.01
3.015
3.015
3.015
3.015
3.025
3.015
3.005
3.015
3.025
3.025
3.025
3.01
3.015
3.015
3.03
3.03
3.025
3.015
3.015
3.025
3.03
3.03
3.03
3.015
3.03
3.03
3.025
3.03
3.025
3.03
3.015
3.035
3.025
3.025
3.035
3.035
3.03
3.035
3.035
3.035
3.03
3.015
3.025
3.025
3.035
3.035
3.005
3.01
2.99
2.975
2.985
3.005
2.975
2.97
2.985
3.01
3.03
2.995
2.985
3.015
3.03
3.045
3.025
3.03
3.045
3.015
3.01
3.005
2.995
2.985
3.005
3.015
3.025
3.015
3.025
3.025
3.03
3.035
3.025
3.035
3.05
3.11
3.175
3.26
3.37
3.41
3.305
3.05
2.84
2.66
2.595
2.61
2.555
2.555
2.72
2.885
2.97
2.97
2.97
2.995
3.025
3.025
3.025
3.03
3.045
3.03
3.05
3.05
3.05
3.05
3.05
3.05
3.055
3.065
3.065
3.07
3.07
3.075
3.075
3.08
3.075
3.08
3.1
3.11
3.11
3.115
3.12
3.12
3.135
3.14
3.13
3.135
3.18
3.18
3.175
3.19
3.19
3.195
3.205
3.22
3.235
3.235
3.235
3.26
3.275
3.28
3.295
3.315
3.345
3.345
3.35
3.37
3.37
3.38
3.38
3.4
3.42
3.41
3.39
3.4
3.405
3.42
3.4
3.39
3.37
3.34
3.34
3.295
3.26
3.235
3.205
3.19
3.16
3.135
3.115
3.11
3.095
3.07
3.075
3.075
3.07
3.07
3.075
3.065
3.055
3.055
3.055
3.07
3.055
3.045
3.045
3.025
3.065
3.055
3.05
3.065
3.05
3.05
3.05
3.05
3.05
3.05
3.045
3.055
3.045
3.05
3.05
3.03
3.045
3.05
3.045
3.05
3.035
3.03
3.035
3.045
3.03
3.035
3.03
3.03
3.03
3.015
3.03
3.015
3.03
3.03
3.035
3.03
3.015
3.01
3.03
3.025
3.03
3.025
2.99
3.015
3.015
3.025
3.03
3.01
3.015
3.01
3.01
3.01
3.015
3.045
3.015
3.01
2.995
3.005
2.995
3.015
3.015
3.015
3.025
3.025
3.025
3.01
3.01
3.015
3.005
3.01
3.01
3.025
3.015
3.01
2.995
3.005
3.015
3.015
3.015
3.015
3.025
3.015
3.025
3.03
3.025
3.015
3.015
3.01
3.005
3.015
3.005
3.01
3.015
3.015
3.015
3.015
3.025
3.025
3.025
3.01
3.005
2.995
3.025
3.03
3.03
3.015
3.015
3.015
3.025
3.015
3.015
3.015
3.015
3.01
3.015
3.025
3.025
2.995
3.025
3.025
3.015
3.005
2.975
2.97
2.975
2.97
2.955
2.965
2.975
3.005
2.995
2.99
2.985
2.99
3.015
3.025
3.025
3.025
3.03
3.01
2.99
2.985
2.975
2.985
2.995
3.005
3.015
3.025
3.035
3.01
3.005
3.01
3.025
3.03
3.05
3.11
3.175
3.265
3.37
3.425
3.39
3.11
2.84
2.65
2.545
2.575
2.49
2.475
2.635
2.805
2.945
2.975
2.99
3.005
3.005
3.015
2.995
3.03
3.035
3.045
3.055
3.05
3.05
3.07
3.075
3.07
3.09
3.09
3.095
3.1
3.095
3.115
3.115
3.12
3.115
3.11
3.12
3.13
3.13
3.135
3.14
3.15
3.17
3.205
3.17
3.18
3.18
3.2
3.22
3.205
3.215
3.225
3.245
3.26
3.255
3.26
3.275
3.28
3.285
3.33
3.34
3.345
3.35
3.365
3.385
3.42
3.405
3.405
3.43
3.43
3.44
3.455
3.45
3.455
3.445
3.485
3.47
3.455
3.44
3.405
3.365
3.34
3.32
3.3
3.265
3.225
3.215
3.205
3.18
3.155
3.12
3.115
3.1
3.1
3.1
3.11
3.11
3.09
3.07
3.075
3.07
3.07
3.035
3.065
