13.000000
68.000000
369.000000
674.000000
980.000000
1284.000000
1587.000000
1879.000000
2175.000000
2475.000000
2766.000000
3054.000000
3364.000000
3674.000000
3978.000000
4282.000000
4580.000000
4883.000000
5171.000000
5464.000000
5762.000000
6057.000000
6351.000000
6644.000000
6929.000000
7215.000000
7506.000000
7793.000000
8082.000000
8378.000000
8664.000000
8966.000000
9266.000000
9565.000000
9875.000000
10178.000000
10480.000000
10789.000000
11046.000000
11383.000000
11687.000000
11991.000000
12294.000000
12595.000000
12898.000000
13199.000000
13497.000000
13790.000000
14071.000000
14359.000000
14638.000000
14916.000000
15209.000000
15497.000000
15789.000000
16090.000000
16393.000000
16701.000000
17006.000000
17313.000000
17622.000000
17933.000000
18243.000000
18548.000000
18854.000000
19157.000000
19459.000000
19761.000000
20055.000000
20360.000000
20655.000000
20957.000000
21267.000000
21566.000000
21868.000000
22176.000000
22474.000000
22777.000000
23076.000000
23373.000000
23667.000000
23968.000000
24272.000000
24566.000000
24863.000000
25169.000000
25473.000000
25775.000000
26078.000000
26375.000000
26674.000000
26976.000000
27278.000000
27575.000000
27873.000000
28177.000000
28469.000000
28767.000000
29060.000000
29350.000000
29648.000000
29947.000000
30240.000000
30537.000000
30830.000000
31121.000000
31412.000000
31704.000000
31986.000000
32272.000000
32560.000000
32850.000000
33141.000000
33429.000000
33656.000000
33983.000000
34290.000000
34578.000000
34864.000000
35151.000000
35385.000000
35700.000000
35993.000000
36277.000000
36563.000000
36843.000000
37131.000000
37419.000000
37706.000000
37931.000000
38260.000000
38488.000000
38850.000000
39146.000000
39428.000000
39713.000000
39994.000000
40284.000000
40520.000000
40827.000000
41126.000000
41413.000000
41707.000000
41998.000000
42286.000000
42582.000000
42876.000000
43175.000000
43473.000000
43766.000000
44061.000000
44350.000000
44642.000000
44935.000000
45231.000000
45522.000000
45810.000000
46111.000000
46405.000000
46694.000000
46991.000000
47284.000000
47568.000000
47861.000000
48147.000000
48429.000000
48714.000000
49010.000000
49295.000000
49589.000000
49881.000000
50177.000000
50475.000000
50776.000000
51080.000000
51380.000000
51683.000000
51989.000000
52293.000000
52590.000000
52895.000000
53201.000000
53503.000000
53810.000000
54117.000000
54420.000000
54728.000000
55036.000000
55336.000000
55639.000000
55950.000000
56252.000000
56554.000000
56863.000000
57158.000000
57459.000000
57758.000000
58051.000000
58350.000000
58637.000000
58933.000000
59228.000000
59522.000000
59817.000000
60111.000000
60396.000000
60686.000000
60914.000000
61234.000000
61528.000000
61824.000000
62109.000000
62399.000000
62692.000000
62976.000000
63269.000000
63560.000000
63851.000000
64144.000000
64440.000000
64520.000000
64954.000000
65276.000000
65575.000000
65870.000000
66160.000000
66446.000000
66746.000000
67037.000000
67327.000000
67625.000000
67921.000000
68213.000000
68517.000000
68821.000000
68923.000000
69375.000000
69697.000000
70008.000000
70319.000000
70614.000000
70913.000000
71208.000000
71505.000000
71752.000000
72103.000000
72342.000000
72717.000000
73038.000000
73349.000000
73664.000000
73970.000000
74268.000000
74576.000000
74877.000000
75169.000000
75459.000000
75759.000000
76057.000000
76356.000000
76657.000000
76957.000000
77256.000000
77559.000000
77863.000000
78162.000000
78461.000000
78769.000000
79075.000000
79377.000000
79680.000000
79980.000000
80282.000000
80593.000000
80858.000000
81190.000000
81492.000000
81797.000000
82091.000000
82385.000000
82680.000000
82974.000000
83268.000000
83560.000000
83855.000000
84143.000000
84427.000000
84716.000000
85004.000000
85294.000000
85586.000000
85875.000000
86163.000000
86455.000000
86753.000000
87035.000000
87321.000000
87620.000000
87905.000000
88203.000000
88495.000000
88791.000000
89098.000000
89398.000000
89702.000000
90000.000000
90300.000000
90612.000000
90924.000000
91224.000000
91530.000000
91838.000000
92147.000000
92463.000000
92780.000000
93093.000000
93418.000000
93738.000000
93918.000000
94056.000000
94355.000000
94667.000000
94972.000000
95150.000000
95284.000000
95580.000000
95872.000000
96163.000000
96450.000000
96744.000000
97038.000000
97326.000000
97618.000000
97914.000000
98209.000000
98513.000000
98810.000000
99025.000000
99354.000000
99661.000000
99952.000000
100242.000000
100535.000000
100758.000000
101077.000000
101384.000000
101671.000000
101959.000000
102253.000000
102488.000000
102822.000000
103143.000000
103214.000000
103669.000000
103997.000000
104297.000000
104592.000000
104895.000000
105188.000000
105466.000000
105781.000000
106076.000000
106376.000000
106668.000000
106960.000000
107269.000000
107565.000000
107858.000000
108155.000000
108450.000000
108741.000000
109014.000000
109300.000000
109576.000000
109814.000000
110121.000000
110410.000000
110694.000000
110978.000000
111265.000000
111496.000000
111823.000000
112124.000000
112425.000000
112717.000000
113008.000000
113313.000000
113603.000000
113896.000000
114195.000000
114489.000000
114786.000000
115083.000000
115381.000000
115680.000000
115977.000000
116278.000000
116580.000000
116881.000000
117177.000000
117479.000000
117779.000000
118067.000000
118362.000000
118656.000000
118949.000000
119254.000000
119550.000000
119848.000000
120146.000000
120454.000000
120756.000000
121049.000000
121358.000000
121656.000000
121959.000000
122260.000000
122555.000000
122856.000000
123139.000000
123429.000000
123731.000000
124015.000000
124310.000000
124604.000000
124894.000000
125194.000000
125474.000000
125696.000000
126043.000000
126350.000000
126650.000000
126942.000000
127155.000000
127470.000000
127705.000000
128051.000000
128284.000000
128621.000000
128853.000000
129202.000000
129502.000000
129796.000000
130000.000000
130319.000000
130615.000000
130814.000000
130905.000000
131193.000000
131475.000000
131747.000000
132027.000000
132306.000000
132577.000000
132845.000000
133045.000000
133122.000000
133394.000000
133665.000000
133943.000000
134223.000000
134493.000000
134769.000000
135046.000000
135312.000000
135581.000000
135841.000000
136107.000000
136370.000000
136637.000000
136901.000000
137166.000000
137431.000000
137694.000000
137964.000000
138234.000000
138500.000000
138756.000000
139028.000000
139292.000000
139554.000000
139821.000000
140091.000000
140353.000000
140616.000000
140889.000000
141153.000000
141418.000000
141653.000000
141941.000000
142199.000000
142462.000000
142720.000000
142978.000000
143232.000000
143487.000000
143740.000000
143996.000000
144250.000000
144503.000000
144750.000000
145002.000000
145256.000000
145504.000000
145759.000000
146012.000000
146260.000000
146504.000000
146759.000000
147013.000000
147260.000000
147502.000000
147749.000000
147995.000000
148238.000000
148483.000000
148729.000000
148972.000000
149215.000000
149460.000000
149706.000000
149952.000000
150198.000000
150443.000000
150682.000000
150928.000000
151171.000000
151414.000000
151654.000000
151900.000000
152140.000000
152377.000000
152614.000000
152863.000000
153104.000000
153343.000000
153581.000000
153829.000000
154066.000000
154307.000000
154553.000000
154803.000000
155044.000000
155291.000000
155536.000000
155785.000000
156029.000000
156274.000000
156515.000000
156757.000000
157002.000000
157247.000000
157489.000000
157735.000000
157983.000000
158173.000000
158457.000000
158715.000000
158969.000000
159223.000000
159473.000000
159728.000000
159980.000000
160229.000000
160483.000000
160740.000000
160989.000000
161237.000000
161485.000000
161674.000000
161949.000000
162202.000000
162450.000000
162698.000000
162946.000000
163198.000000
163454.000000
163707.000000
163965.000000
164224.000000
164478.000000
164743.000000
165003.000000
165261.000000
165518.000000
165783.000000
165956.000000
166214.000000
166529.000000
166805.000000
167068.000000
167334.000000
167601.000000
167870.000000
168135.000000
168401.000000
168665.000000
168923.000000
169185.000000
169445.000000
169708.000000
169965.000000
170222.000000
170474.000000
170740.000000
170997.000000
171260.000000
171511.000000
171776.000000
172035.000000
172294.000000
172560.000000
172824.000000
173079.000000
173330.000000
173595.000000
173848.000000
174106.000000
174357.000000
174616.000000
174864.000000
175124.000000
175381.000000
175644.000000
175895.000000
176155.000000
176413.000000
176662.000000
176941.000000
177201.000000
177457.000000
177717.000000
177888.000000
178197.000000
178503.000000
178769.000000
179030.000000
179287.000000
179555.000000
179782.000000
180073.000000
180270.000000
180602.000000
180863.000000
181122.000000
181388.000000
181647.000000
181903.000000
182162.000000
182407.000000
182681.000000
182945.000000
183200.000000
183458.000000
183715.000000
183974.000000
184187.000000
184479.000000
184739.000000
184997.000000
185254.000000
185534.000000
185779.000000
186032.000000
186283.000000
186472.000000
186756.000000
187010.000000
187269.000000
187526.000000
187772.000000
188023.000000
188274.000000
188526.000000
188774.000000
189025.000000
189273.000000
189520.000000
189767.000000
190019.000000
190267.000000
190514.000000
190763.000000
190944.000000
191222.000000
191480.000000
191729.000000
191977.000000
192225.000000
192477.000000
192723.000000
192969.000000
193221.000000
193445.000000
193719.000000
193973.000000
194237.000000
194496.000000
194756.000000
195018.000000
195285.000000
195547.000000
195813.000000
196077.000000
196344.000000
196610.000000
196880.000000
197150.000000
197422.000000
197691.000000
197961.000000
198230.000000
198502.000000
198772.000000
199046.000000
199324.000000
199600.000000
199791.000000
200095.000000
200380.000000
200575.000000
200891.000000
201165.000000
201442.000000
201715.000000
201995.000000
202273.000000
202553.000000
202835.000000
203115.000000
203401.000000
203685.000000
203965.000000
204247.000000
204421.000000
204808.000000
205089.000000
205375.000000
205652.000000
205925.000000
206210.000000
206491.000000
206770.000000
207049.000000
207335.000000
207611.000000
207889.000000
208170.000000
208444.000000
208723.000000
208996.000000
209275.000000
209552.000000
209830.000000
210104.000000
210383.000000
210660.000000
210934.000000
211217.000000
211489.000000
211755.000000
212023.000000
212298.000000
212567.000000
212832.000000
213104.000000
213374.000000
213643.000000
213917.000000
214197.000000
214468.000000
214744.000000
215023.000000
215302.000000
215586.000000
215862.000000
216142.000000
216422.000000
216701.000000
216981.000000
217180.000000
217486.000000
217763.000000
218041.000000
218318.000000
218593.000000
218860.000000
219137.000000
219410.000000
219682.000000
219961.000000
220237.000000
220507.000000
220782.000000
221065.000000
221331.000000
221609.000000
221883.000000
222157.000000
222426.000000
222698.000000
222973.000000
223246.000000
223521.000000
223793.000000
224067.000000
224343.000000
224617.000000
224895.000000
225166.000000
225441.000000
225715.000000
226001.000000
226272.000000
226463.000000
226767.000000
227053.000000
227324.000000
227593.000000
227866.000000
228125.000000
228396.000000
228669.000000
228946.000000
229218.000000
229495.000000
229770.000000
230045.000000
230330.000000
230602.000000
230877.000000
231154.000000
231427.000000
231699.000000
231983.000000
232255.000000
232524.000000
232803.000000
233080.000000
233361.000000
233625.000000
233905.000000
234188.000000
234464.000000
234753.000000
234950.000000
235257.000000
235535.000000
235819.000000
236097.000000
236376.000000
236650.000000
236932.000000
237216.000000
237502.000000
237789.000000
238075.000000
238361.000000
238646.000000
238944.000000
239229.000000
239424.000000
239740.000000
240025.000000
240312.000000
240529.000000
240878.000000
241173.000000
241473.000000
241777.000000
242075.000000
242384.000000
242686.000000
242996.000000
243313.000000
243618.000000
243934.000000
244242.000000
244545.000000
244863.000000
245173.000000
245473.000000
245785.000000
246091.000000
246389.000000
246693.000000
246993.000000
247287.000000
247587.000000
247889.000000
248187.000000
248481.000000
248784.000000
249097.000000
249408.000000
249721.000000
250043.000000
250362.000000
250677.000000
250998.000000
251315.000000
251628.000000
251946.000000
252253.000000
252563.000000
252873.000000
253169.000000
253370.000000
253715.000000
254020.000000
254329.000000
254644.000000
254954.000000
255276.000000
255600.000000
255916.000000
256232.000000
256549.000000
256866.000000
257184.000000
257491.000000
257805.000000
258118.000000
258430.000000
258747.000000
259057.000000
259366.000000
259682.000000
259987.000000
260291.000000
260598.000000
260899.000000
261121.000000
261481.000000
261780.000000
262084.000000
262388.000000
262594.000000
262921.000000
263216.000000
263414.000000
263733.000000
263961.000000
264290.000000
264579.000000
264862.000000
265138.000000
265425.000000
265702.000000
265980.000000
266252.000000
266535.000000
266808.000000
267083.000000
267368.000000
267642.000000
267814.000000
268180.000000
268455.000000
268720.000000
268990.000000
269217.000000
269262.000000
269511.000000
269712.000000
269779.000000
270050.000000
270317.000000
270586.000000
270856.000000
271122.000000
271396.000000
271667.000000
271933.000000
272193.000000
272413.000000
272712.000000
272976.000000
273246.000000
273516.000000
273777.000000
273967.000000
274271.000000
274538.000000
274806.000000
275067.000000
275339.000000
275546.000000
275853.000000
276126.000000
276398.000000
276666.000000
276932.000000
277191.000000
277460.000000
277682.000000
277974.000000
278238.000000
278496.000000
278758.000000
279014.000000
279247.000000
279535.000000
279801.000000
280069.000000
280349.000000
280617.000000
280893.000000
281168.000000
281439.000000
281717.000000
282003.000000
282289.000000
282568.000000
282853.000000
283144.000000
283432.000000
283722.000000
284006.000000
284295.000000
284582.000000
284865.000000
285154.000000
285449.000000
285732.000000
286016.000000
286313.000000
286528.000000
286837.000000
287137.000000
287433.000000
287725.000000
288017.000000
288312.000000
288600.000000
288896.000000
289193.000000
289490.000000
289793.000000
290085.000000
290382.000000
290680.000000
290975.000000
291273.000000
291562.000000
291846.000000
292070.000000
292367.000000
292649.000000
292922.000000
293206.000000
293481.000000
293758.000000
294045.000000
294330.000000
294612.000000
294898.000000
295193.000000
295478.000000
295769.000000
296057.000000
296343.000000
296640.000000
296928.000000
297222.000000
297515.000000
297805.000000
298107.000000
298402.000000
298695.000000
298993.000000
299288.000000
299580.000000
299687.000000
300145.000000
300468.000000
300778.000000
301089.000000
301381.000000
301668.000000
301958.000000
302242.000000
302533.000000
302823.000000
303108.000000
303395.000000
303676.000000
303960.000000
304244.000000
304524.000000
304796.000000
305077.000000
305354.000000
305576.000000
306016.000000
306322.000000
306600.000000
306885.000000
307100.000000
307394.000000
307675.000000
307952.000000
308225.000000
308496.000000
308775.000000
309048.000000
309318.000000
309535.000000
309820.000000
310099.000000
310382.000000
310657.000000
310750.000000
311151.000000
311455.000000
311734.000000
312016.000000
312292.000000
312559.000000
312844.000000
313117.000000
313388.000000
313666.000000
313947.000000
314160.000000
314461.000000
314762.000000
315044.000000
315333.000000
315617.000000
315902.000000
316186.000000
316470.000000
316755.000000
317033.000000
317320.000000
317603.000000
317887.000000
318174.000000
318459.000000
318752.000000
319041.000000
319333.000000
319550.000000
319919.000000
320241.000000
320550.000000
320863.000000
321161.000000
321454.000000
321755.000000
322043.000000
322330.000000
322622.000000
322906.000000
323196.000000
323494.000000
323786.000000
324079.000000
324370.000000
324665.000000
324957.000000
325247.000000
325528.000000
325821.000000
326110.000000
326403.000000
326699.000000
326987.000000
327277.000000
327567.000000
327864.000000
328154.000000
328440.000000
328732.000000
329011.000000
329302.000000
329591.000000
329877.000000
330105.000000
330544.000000
330888.000000
331195.000000
331478.000000
331771.000000
332060.000000
332341.000000
332637.000000
332920.000000
333203.000000
333491.000000
333781.000000
334069.000000
334349.000000
334640.000000
334922.000000
335207.000000
335498.000000
335784.000000
336069.000000
336354.000000
336643.000000
336928.000000
337213.000000
337492.000000
337774.000000
338062.000000
338346.000000
338632.000000
338917.000000
339191.000000
339406.000000
339706.000000
339994.000000
340263.000000
340546.000000
340821.000000
341094.000000
341377.000000
341658.000000
341930.000000
342212.000000
342497.000000
342719.000000
343153.000000
343455.000000
343734.000000
344014.000000
344287.000000
344565.000000
344838.000000
345068.000000
345370.000000
345656.000000
345862.000000
346202.000000
346488.000000
346766.000000
347045.000000
347324.000000
347601.000000
347880.000000
348161.000000
348454.000000
348731.000000
349008.000000
349293.000000
349572.000000
349855.000000
350146.000000
350434.000000
350707.000000
350935.000000
351242.000000
351531.000000
351818.000000
352095.000000
352374.000000
352649.000000
352927.000000
353212.000000
353495.000000
353770.000000
354045.000000
354287.000000
354603.000000
354895.000000
355183.000000
355458.000000
355740.000000
356026.000000
356304.000000
356581.000000
356862.000000
357142.000000
357419.000000
357704.000000
357978.000000
358260.000000
358540.000000
358817.000000
359097.000000
359278.000000
359664.000000
359949.000000
360237.000000
360518.000000
360795.000000
361077.000000
361363.000000
361647.000000
361868.000000
362183.000000
362495.000000
362796.000000
363100.000000
363396.000000
363696.000000
363991.000000
364294.000000
364589.000000
364887.000000
365188.000000
365483.000000
365776.000000
366075.000000
366178.000000
366634.000000
366934.000000
367243.000000
367535.000000
367829.000000
368127.000000
368415.000000
368702.000000
368992.000000
369283.000000
369570.000000
369859.000000
370148.000000
370437.000000
370726.000000
371016.000000
371309.000000
371596.000000
371878.000000
372168.000000
372453.000000
372728.000000
373006.000000
373290.000000
373567.000000
373851.000000
374143.000000
374425.000000
374709.000000
375002.000000
375293.000000
375584.000000
375874.000000
376163.000000
376448.000000
376742.000000
376957.000000
377278.000000
377579.000000
377872.000000
378169.000000
378464.000000
378747.000000
379044.000000
379138.000000
379576.000000
379885.000000
380188.000000
380479.000000
380772.000000
381073.000000
381358.000000
381642.000000
381933.000000
382212.000000
382498.000000
382789.000000
383079.000000
383369.000000
383666.000000
383955.000000
384260.000000
384559.000000
384856.000000
385147.000000
385444.000000
385735.000000
386031.000000
386326.000000
386613.000000
386917.000000
387211.000000
387497.000000
387797.000000
388086.000000
388375.000000
388671.000000
388965.000000
389252.000000
389535.000000
389821.000000
390106.000000
390391.000000
390681.000000
390955.000000
391237.000000
391518.000000
391804.000000
392087.000000
392372.000000
392668.000000
392958.000000
393253.000000
393541.000000
393840.000000
394135.000000
394429.000000
394736.000000
395033.000000
395325.000000
395631.000000
395931.000000
396228.000000
396521.000000
396804.000000
397096.000000
397395.000000
397691.000000
397984.000000
398272.000000
398567.000000
398860.000000
399155.000000
399365.000000
399668.000000
399976.000000
400261.000000
400565.000000
400867.000000
401161.000000
401464.000000
401775.000000
402073.000000
402368.000000
402669.000000
402962.000000
403259.000000
403561.000000
403848.000000
404137.000000
404448.000000
404750.000000
405041.000000
405342.000000
405639.000000
405936.000000
406234.000000
406529.000000
406750.000000
407067.000000
407367.000000
407676.000000
407976.000000
408269.000000
408575.000000
408871.000000
409172.000000
409481.000000
409570.000000
410022.000000
410336.000000
410645.000000
410954.000000
411251.000000
411554.000000
411861.000000
412164.000000
412466.000000
412768.000000
413068.000000
413370.000000
413678.000000
413979.000000
414279.000000
414585.000000
414891.000000
415193.000000
415503.000000
415801.000000
416099.000000
416410.000000
416709.000000
417003.000000
417303.000000
417597.000000
417892.000000
418191.000000
418495.000000
418790.000000
419081.000000
419381.000000
419676.000000
419962.000000
420246.000000
420543.000000
420833.000000
421118.000000
421410.000000
421696.000000
421978.000000
422265.000000
422506.000000
422814.000000
423098.000000
423388.000000
423666.000000
423946.000000
424181.000000
424482.000000
424765.000000
425038.000000
425315.000000
425588.000000
425863.000000
426136.000000
426414.000000
426697.000000
426979.000000
427273.000000
427558.000000
427842.000000
428136.000000
428423.000000
428712.000000
428996.000000
429284.000000
429567.000000
429856.000000
430144.000000
430422.000000
430651.000000
430984.000000
431279.000000
431569.000000
431854.000000
432147.000000
432440.000000
432735.000000
433033.000000
433330.000000
433625.000000
433916.000000
434222.000000
434521.000000
434814.000000
435114.000000
435411.000000
435707.000000
436010.000000
436305.000000
436597.000000
436898.000000
437202.000000
437503.000000
437807.000000
438107.000000
438409.000000
438717.000000
439019.000000
439323.000000
439624.000000
439923.000000
440228.000000
440534.000000
440823.000000
441126.000000
441426.000000
441717.000000
442025.000000
442323.000000
442611.000000
442908.000000
443207.000000
443499.000000
443786.000000
444078.000000
444363.000000
444655.000000
444950.000000
445233.000000
445521.000000
445793.000000
446088.000000
446381.000000
446665.000000
446953.000000
447237.000000
447520.000000
447726.000000
448038.000000
448326.000000
448610.000000
448911.000000
449204.000000
449494.000000
449787.000000
450083.000000
450373.000000
450673.000000
450974.000000
451270.000000
451570.000000
451875.000000
452175.000000
452484.000000
452779.000000
453085.000000
453396.000000
453701.000000
454014.000000
454323.000000
454625.000000
454941.000000
455249.000000
455556.000000
455866.000000
456176.000000
456487.000000
456804.000000
457112.000000
457423.000000
457737.000000
458050.000000
458356.000000
458656.000000
458965.000000
459269.000000
459572.000000
459882.000000
460182.000000
460477.000000
460789.000000
461089.000000
461385.000000
461691.000000
461996.000000
462296.000000
462607.000000
462913.000000
463206.000000
463507.000000
463811.000000
464100.000000
464389.000000
464690.000000
464977.000000
465271.000000
465576.000000
465867.000000
466168.000000
466472.000000
466771.000000
467070.000000
467363.000000
467665.000000
467961.000000
468251.000000
468554.000000
468847.000000
469137.000000
469436.000000
469736.000000
470031.000000
470323.000000
470630.000000
470924.000000
471224.000000
471533.000000
471832.000000
472129.000000
472436.000000
472733.000000
473035.000000
473329.000000
473626.000000
473932.000000
474234.000000
474539.000000
474846.000000
475151.000000
475463.000000
475774.000000
476081.000000
476389.000000
476701.000000
477006.000000
477321.000000
477630.000000
477935.000000
478248.000000
478564.000000
478872.000000
479181.000000
479496.000000
479805.000000
479884.000000
480367.000000
480685.000000
480992.000000
481291.000000
481582.000000
481875.000000
482151.000000
482440.000000
482682.000000
482995.000000
483301.000000
483601.000000
483894.000000
484198.000000
484506.000000
484801.000000
485094.000000
485400.000000
485695.000000
485990.000000
486296.000000
486592.000000
486889.000000
487185.000000
487489.000000
487790.000000
488082.000000
488388.000000
488626.000000
488984.000000
489105.000000
489189.000000
489575.000000
489881.000000
490195.000000
490505.000000
490810.000000
491116.000000
491427.000000
491656.000000
492022.000000
492358.000000
492679.000000
492999.000000
493319.000000
493640.000000
493951.000000
494261.000000
494571.000000
494885.000000
495199.000000
495512.000000
495825.000000
496142.000000
496462.000000
496778.000000
497004.000000
497375.000000
497707.000000
497897.000000
498348.000000
498663.000000
498977.000000
499212.000000
499575.000000
499905.000000
500230.000000
500552.000000
500874.000000
501203.000000
501524.000000
501841.000000
502163.000000
502475.000000
502783.000000
503104.000000
503330.000000
503699.000000
504039.000000
504356.000000
504676.000000
505002.000000
505315.000000
505632.000000
505945.000000
506249.000000
506564.000000
506873.000000
507099.000000
507455.000000
507761.000000
508075.000000
508385.000000
508606.000000
508948.000000
509255.000000
509558.000000
509869.000000
510092.000000
510435.000000
510741.000000
511053.000000
511359.000000
511659.000000
511964.000000
512264.000000
512486.000000
512843.000000
513150.000000
513459.000000
513687.000000
514036.000000
514351.000000
514658.000000
514888.000000
515240.000000
515557.000000
515873.000000
516182.000000
516488.000000
516804.000000
517109.000000
517409.000000
517720.000000
518026.000000
518331.000000
518649.000000
518961.000000
519269.000000
519585.000000
519899.000000
520211.000000
520521.000000
520831.000000
521142.000000
521458.000000
521778.000000
522089.000000
522402.000000
522726.000000
523040.000000
523344.000000
523655.000000
523967.000000
524275.000000
524583.000000
524891.000000
525201.000000
525509.000000
525817.000000
526121.000000
526428.000000
526738.000000
527044.000000
527358.000000
527671.000000
527973.000000
528278.000000
528587.000000
528889.000000
529191.000000
529486.000000
529793.000000
530095.000000
530392.000000
530702.000000
531007.000000
531302.000000
531614.000000
531798.000000
532206.000000
532513.000000
532813.000000
533110.000000
533408.000000
533711.000000
534011.000000
534309.000000
534617.000000
534925.000000
535227.000000
535529.000000
535840.000000
536147.000000
536454.000000
536768.000000
537073.000000
537376.000000
537686.000000
537991.000000
538289.000000
538600.000000
538909.000000
539219.000000
539536.000000
539845.000000
540161.000000
540480.000000
540791.000000
541105.000000
541413.000000
541723.000000
542037.000000
542344.000000
542658.000000
542975.000000
543279.000000
543594.000000
543905.000000
544210.000000
544525.000000
544834.000000
545138.000000
545451.000000
545756.000000
546056.000000
546370.000000
546675.000000
546980.000000
547289.000000
547592.000000
547895.000000
548199.000000
548504.000000
548809.000000
549109.000000
549415.000000
549724.000000
549942.000000
550261.000000
550573.000000
550872.000000
551183.000000
551489.000000
551787.000000
552090.000000
552399.000000
552704.000000
553002.000000
553305.000000
553604.000000
553906.000000
554207.000000
554503.000000
554800.000000
555099.000000
555392.000000
555696.000000
555989.000000
556288.000000
556592.000000
556792.000000
557084.000000
557461.000000
557773.000000
558086.000000
558395.000000
558699.000000
559005.000000
559310.000000
559607.000000
559910.000000
560220.000000
560515.000000
560816.000000
561126.000000
561430.000000
561735.000000
562034.000000
562333.000000
562629.000000
562930.000000
563228.000000
563520.000000
563802.000000
564017.000000
564334.000000
564628.000000
564921.000000
565220.000000
565517.000000
565823.000000
566136.000000
566438.000000
566741.000000
567059.000000
567370.000000
567669.000000
567977.000000
568275.000000
568576.000000
568885.000000
569185.000000
569490.000000
569803.000000
570114.000000
570432.000000
570743.000000
571057.000000
571256.000000
571669.000000
571924.000000
572290.000000
572591.000000
572903.000000
573211.000000
573513.000000
573819.000000
574124.000000
574436.000000
574746.000000
575057.000000
575365.000000
575679.000000
575994.000000
576304.000000
576612.000000
576919.000000
577228.000000
577538.000000
577849.000000
578163.000000
578468.000000
578781.000000
579089.000000
579230.000000
579395.000000
579699.000000
580008.000000
580307.000000
580607.000000
580912.000000
581200.000000
581496.000000
581795.000000
582079.000000
582310.000000
582623.000000
582921.000000
583207.000000
583494.000000
583781.000000
584015.000000
584323.000000
584605.000000
584888.000000
585083.000000
585164.000000
585422.000000
585691.000000
585952.000000
586211.000000
586471.000000
586736.000000
586990.000000
587244.000000
587501.000000
587762.000000
588009.000000
588259.000000
588504.000000
588576.000000
588753.000000
588996.000000
589240.000000
589485.000000
589727.000000
589980.000000
590209.000000
590449.000000
590575.000000
590695.000000
590938.000000
591180.000000
591417.000000
591664.000000
591910.000000
592155.000000
592400.000000
592648.000000
592894.000000
593134.000000
593379.000000
593628.000000
593869.000000
594109.000000
594350.000000
594593.000000
594833.000000
595074.000000
595321.000000
595566.000000
595808.000000
596051.000000
596297.000000
596543.000000
596787.000000
597031.000000
597273.000000
597515.000000
597757.000000
598001.000000
598243.000000
598489.000000
598735.000000
598979.000000
599221.000000
599410.000000
599689.000000
599940.000000
600182.000000
600435.000000
600681.000000
600925.000000
601173.000000
601426.000000
601670.000000
601917.000000
602166.000000
602424.000000
602665.000000
602914.000000
603161.000000
603409.000000
603657.000000
603910.000000
604163.000000
604417.000000
604666.000000
604920.000000
605173.000000
605431.000000
605683.000000
605935.000000
606182.000000
606437.000000
606685.000000
606931.000000
607186.000000
607442.000000
607693.000000
607943.000000
608203.000000
608459.000000
608713.000000
608964.000000
609224.000000
609473.000000
609727.000000
609980.000000
610237.000000
610487.000000
610743.000000
610994.000000
611252.000000
611506.000000
611761.000000
612009.000000
612207.000000
612626.000000
612891.000000
613155.000000
613414.000000
613669.000000
613920.000000
614178.000000
614432.000000
614682.000000
614932.000000
615123.000000
615398.000000
615650.000000
615906.000000
616162.000000
616356.000000
616642.000000
616898.000000
617156.000000
617412.000000
617669.000000
617922.000000
618176.000000
618429.000000
618685.000000
618937.000000
619197.000000
619449.000000
619699.000000
619946.000000
620205.000000
620454.000000
620705.000000
620953.000000
621209.000000
621458.000000
621591.000000
621708.000000
621965.000000
622066.000000
622219.000000
622462.000000
622709.000000
622956.000000
623206.000000
623451.000000
623700.000000
623946.000000
624132.000000
624416.000000
624673.000000
624926.000000
625184.000000
625438.000000
625692.000000
625947.000000
626207.000000
626466.000000
626714.000000
626972.000000
627225.000000
627413.000000
627591.000000
627847.000000
628108.000000
628356.000000
628607.000000
628866.000000
629121.000000
629374.000000
629620.000000
629875.000000
630121.000000
630372.000000
630626.000000
630884.000000
631132.000000
631386.000000
631636.000000
631893.000000
632147.000000
632403.000000
632651.000000
632908.000000
633163.000000
633418.000000
633671.000000
633929.000000
634185.000000
634434.000000
634696.000000
634956.000000
635216.000000
635470.000000
635731.000000
635991.000000
636247.000000
636508.000000
636775.000000
637030.000000
637288.000000
637480.000000
637904.000000
638173.000000
638430.000000
638686.000000
638941.000000
639199.000000
639394.000000
639675.000000
639932.000000
640186.000000
640438.000000
640633.000000
640915.000000
641172.000000
641417.000000
641675.000000
641928.000000
642176.000000
642432.000000
642691.000000
642940.000000
643193.000000
643450.000000
643714.000000
643968.000000
644225.000000
644479.000000
644734.000000
644988.000000
645250.000000
645510.000000
645768.000000
646026.000000
646250.000000
646536.000000
646798.000000
647064.000000
647316.000000
647517.000000
647802.000000
648068.000000
648330.000000
648600.000000
648792.000000
649226.000000
649429.000000
649742.000000
