-7.245
-7.165
-7.085
-6.96
-6.81
-6.665
-6.505
-6.385
-6.315
-6.265
-6.245
-6.235
-6.24
-6.235
-6.195
-6.15
-6.1
-6.095
-6.1
-6.12
-6.14
-6.16
-6.15
-6.16
-6.145
-6.115
-6.105
-6.115
-6.095
-6.13
-6.145
-6.155
-6.17
-6.17
-6.18
-6.2
-6.2
-6.22
-6.235
-6.235
-6.225
-6.235
-6.235
-6.25
-6.245
-6.255
-6.265
-6.28
-6.27
-6.295
-6.29
-6.325
-6.32
-6.32
-6.3
-6.285
-6.275
-6.275
-6.27
-6.285
-6.28
-6.255
-6.23
-6.205
-6.205
-6.22
-6.225
-6.245
-6.23
-6.2
-6.18
-6.165
-6.15
-6.12
-6.095
-6.07
-6.055
-6.06
-6.035
-6.03
-6.035
-6.06
-6.08
-6.09
-6.09
-6.075
-6.05
-6.035
-6.035
-6.04
-6.06
-6.045
-6.05
-6.06
-6.08
-6.1
-6.085
-6.06
-6.045
-6.0
-6.01
-5.98
-6.005
-6.055
-6.08
-6.105
-6.12
-6.105
-6.095
-6.065
-6.05
-6.04
-6.055
-6.06
-6.06
-6.08
-6.105
-6.13
-6.14
-6.15
-6.14
-6.135
-6.14
-6.125
-6.09
-6.055
-6.06
-6.065
-6.1
-6.14
-6.155
-6.14
-6.14
-6.14
-6.13
-6.09
-6.09
-6.095
-6.09
-6.08
-6.09
-6.075
-6.055
-6.065
-6.105
-6.14
-6.15
-6.15
-6.105
-6.06
-6.035
-6.015
-5.985
-5.98
-5.945
-5.945
-5.94
-5.925
-5.925
-5.935
-5.92
-5.91
-5.9
-5.91
-5.935
-5.965
-5.985
-6.0
-6.01
-6.01
-6.005
-5.99
-5.98
-5.97
-5.97
-5.97
-5.98
-5.995
-6.035
-6.09
-6.12
-6.13
-6.12
-6.12
-6.14
-6.135
-6.15
-6.17
-6.18
-6.195
-6.21
-6.22
-6.19
-6.195
-6.175
-6.185
-6.18
-6.175
-6.18
-6.15
-6.16
-6.15
-6.185
-6.205
-6.255
-6.285
-6.3
-6.3
-6.295
-6.295
-6.285
-6.28
-6.305
-6.34
-6.35
-6.34
-6.295
-6.22
-6.12
-6.045
-6.01
-6.005
-6.03
-6.04
-5.945
-5.805
-5.57
-5.315
-5.065
-4.895
-4.88
-5.02
-5.325
-5.75
-6.15
-6.46
-6.665
-6.78
-6.86
-6.925
-7.0
-7.075
-7.13
-7.165
-7.2
-7.215
-7.24
-7.255
-7.27
-7.255
-7.265
-7.21
-7.135
-7.055
-6.945
-6.81
-6.675
-6.545
-6.455
-6.36
-6.3
-6.28
-6.23
-6.22
-6.195
-6.165
-6.125
-6.135
-6.16
-6.22
-6.24
-6.25
-6.24
-6.21
-6.19
-6.175
-6.155
-6.125
-6.145
-6.19
-6.22
-6.28
-6.295
-6.31
-6.31
-6.31
-6.31
-6.32
-6.305
-6.31
-6.305
-6.3
-6.31
-6.335
-6.325
-6.315
-6.295
-6.315
-6.35
-6.375
-6.415
-6.44
-6.435
-6.415
-6.4
-6.36
-6.34
-6.355
-6.335
-6.295
-6.3
-6.31
-6.33
-6.345
-6.345
-6.315
-6.275
-6.255
-6.23
-6.25
-6.275
-6.31
-6.29
-6.27
-6.245
-6.21
-6.22
-6.215
-6.19
-6.18
-6.16
-6.145
-6.14
-6.145
-6.155
-6.15
-6.135
-6.125
-6.11
-6.11
-6.12
-6.115
-6.125
-6.125
-6.12
-6.135
-6.15
-6.19
-6.245
-6.245
-6.23
-6.205
-6.17
-6.12
-6.11
-6.13
-6.18
-6.205
-6.225
-6.235
-6.18
-6.17
-6.15
-6.145
-6.145
-6.15
-6.16
-6.185
-6.22
-6.25
-6.31
-6.315
-6.29
-6.27
-6.23
-6.215
-6.21
-6.195
-6.195
-6.205
-6.205
-6.205
-6.195
-6.205
-6.24
-6.225
-6.2
-6.175
-6.175
-6.175
-6.17
-6.185
-6.19
-6.185
-6.2
-6.195
-6.19
-6.2
-6.205
-6.195
-6.18
-6.16
-6.165
-6.14
-6.135
-6.105
-6.085
-6.055
-6.045
-6.045
-6.025
-6.0
-5.985
-5.97
-5.975
-6.01
-6.035
-6.075
-6.11
-6.14
-6.175
-6.165
-6.13
-6.11
-6.075
-6.055
-6.05
-6.06
-6.08
-6.1
-6.135
-6.145
-6.175
-6.175
-6.185
-6.19
-6.21
-6.23
-6.25
-6.265
-6.29
-6.305
-6.3
-6.31
-6.3
-6.305
-6.3
-6.29
-6.295
-6.295
-6.295
-6.32
-6.335
-6.325
-6.335
-6.345
-6.34
-6.35
-6.355
-6.345
-6.33
-6.32
-6.305
-6.29
-6.295
-6.34
-6.405
-6.455
-6.49
-6.475
-6.425
-6.305
-6.185
-6.06
-5.995
-5.985
-6.035
-6.095
-6.095
-5.955
-5.695
-5.395
-5.145
-4.985
-4.99
-5.185
-5.525
-5.94
-6.32
-6.595
-6.765
-6.86
-6.905
-6.985
-7.04
-7.145
-7.225
-7.285
-7.34
-7.37
-7.365
-7.365
-7.35
-7.315
-7.275
-7.21
-7.145
-7.03
-6.895
-6.75
-6.6
-6.49
-6.395
-6.365
-6.36
-6.355
-6.345
-6.305
-6.285
-6.275
-6.27
-6.27
-6.285
-6.295
-6.31
-6.285
-6.28
-6.29
-6.285
-6.275
-6.27
-6.27
-6.285
-6.285
-6.27
-6.29
-6.3
-6.32
-6.32
-6.345
-6.35
-6.36
-6.37
-6.375
-6.365
-6.375
-6.365
-6.405
-6.415
-6.415
-6.425
-6.435
-6.445
-6.45
-6.46
-6.45
-6.44
-6.445
-6.445
-6.45
-6.445
-6.47
-6.49
-6.515
-6.505
-6.48
-6.465
-6.445
-6.42
-6.39
-6.37
-6.36
-6.355
-6.345
-6.34
-6.34
-6.325
-6.3
-6.265
-6.23
-6.225
-6.24
-6.25
-6.27
-6.29
-6.295
-6.3
-6.29
-6.26
-6.235
-6.21
-6.205
-6.19
-6.18
-6.195
-6.185
-6.18
-6.195
-6.18
-6.18
-6.165
-6.165
-6.19
-6.18
-6.22
-6.23
-6.255
-6.285
-6.3
-6.31
-6.31
-6.29
-6.26
-6.24
-6.235
-6.24
-6.24
-6.24
-6.235
-6.235
-6.245
-6.25
-6.26
-6.29
-6.285
-6.3
-6.29
-6.26
-6.235
-6.215
-6.215
-6.235
-6.29
-6.325
-6.35
-6.34
-6.33
-6.285
-6.255
-6.235
-6.225
-6.225
-6.245
-6.27
-6.285
-6.305
-6.295
-6.3
-6.295
-6.28
-6.255
-6.24
-6.215
-6.2
-6.195
-6.2
-6.2
-6.215
-6.22
-6.2
-6.165
-6.135
-6.1
-6.055
-6.04
-6.02
-6.02
-6.025
-6.065
-6.06
-6.085
-6.11
-6.14
-6.165
-6.17
-6.155
-6.17
-6.165
-6.185
-6.18
-6.19
-6.15
-6.1
-6.09
-6.07
-6.105
-6.14
-6.18
-6.225
-6.22
-6.24
-6.255
-6.26
-6.265
-6.295
-6.32
-6.33
-6.335
-6.335
-6.325
-6.3
-6.305
-6.3
-6.315
-6.31
-6.325
-6.33
-6.315
-6.3
-6.295
-6.265
-6.295
-6.375
-6.405
-6.405
-6.385
-6.37
-6.39
-6.375
-6.38
-6.38
-6.405
-6.425
-6.465
-6.465
-6.465
-6.42
-6.365
-6.285
-6.195
-6.125
-6.075
-6.075
-6.085
-6.12
-6.07
-5.935
-5.67
-5.385
-5.105
-4.97
-4.98
-5.19
-5.545
-5.97
-6.34
-6.6
-6.76
-6.855
-6.95
-7.055
-7.18
-7.27
-7.325
-7.355
-7.365
-7.35
-7.35
-7.33
-7.32
-7.295
-7.275
-7.255
-7.215
-7.125
-6.975
-6.825
-6.69
-6.565
-6.45
-6.4
-6.36
-6.36
-6.35
-6.335
-6.31
-6.31
-6.32
-6.325
-6.33
-6.305
-6.3
-6.275
-6.265
-6.26
-6.26
-6.28
-6.29
-6.3
-6.305
-6.315
-6.3
-6.29
-6.28
-6.255
-6.255
-6.27
-6.305
-6.34
-6.38
-6.4
-6.41
-6.405
-6.405
-6.415
-6.42
-6.425
-6.45
-6.435
-6.47
-6.465
-6.44
-6.43
-6.405
-6.415
-6.415
-6.435
-6.465
-6.48
-6.5
-6.5
-6.475
-6.43
-6.4
-6.39
-6.43
-6.45
-6.455
-6.45
-6.415
-6.37
-6.335
-6.305
-6.29
-6.29
-6.29
-6.31
-6.32
-6.33
-6.32
-6.27
-6.24
-6.21
-6.19
-6.205
-6.21
-6.235
-6.235
-6.265
-6.26
-6.255
-6.235
-6.225
-6.205
-6.19
-6.2
-6.195
-6.2
-6.21
-6.23
-6.275
-6.29
-6.315
-6.315
-6.29
-6.265
-6.25
-6.225
-6.215
-6.235
-6.245
-6.265
-6.275
-6.28
-6.26
-6.265
-6.255
-6.24
-6.23
-6.22
-6.25
-6.29
-6.32
-6.34
-6.34
-6.34
-6.33
-6.33
-6.32
-6.315
-6.295
-6.285
-6.285
-6.285
-6.28
-6.27
-6.255
-6.245
-6.245
-6.25
-6.265
-6.295
-6.305
-6.32
-6.3
-6.27
-6.26
-6.25
-6.245
-6.225
-6.22
-6.18
-6.175
-6.145
-6.11
-6.12
-6.12
-6.115
-6.125
-6.095
-6.085
-6.08
-6.085
-6.065
-6.05
-6.04
-6.025
-6.025
-6.03
-6.05
-6.095
-6.145
-6.19
-6.21
-6.22
-6.225
-6.18
-6.16
-6.125
-6.08
-6.085
-6.1
-6.155
-6.205
-6.25
-6.265
-6.29
-6.32
-6.335
-6.345
-6.35
-6.34
-6.325
-6.33
-6.345
-6.345
-6.355
-6.36
-6.355
-6.38
-6.36
-6.315
-6.285
-6.265
-6.285
-6.32
-6.345
-6.385
-6.4
-6.415
-6.41
-6.4
-6.415
-6.405
-6.385
-6.345
-6.3
-6.25
-6.2
-6.165
-6.125
-6.09
-6.09
-6.105
-6.095
-6.0
-5.775
-5.515
-5.205
-5.025
-4.99
-5.16
-5.525
-5.975
-6.425
-6.755
-6.955
-7.075
-7.13
-7.175
-7.25
-7.295
-7.355
-7.385
-7.405
-7.41
-7.38
-7.385
-7.34
-7.34
-7.32
-7.3
-7.245
-7.12
-6.955
-6.77
-6.61
-6.495
-6.445
-6.42
-6.415
-6.39
-6.37
-6.36
-6.33
-6.315
-6.31
-6.285
-6.27
-6.265
-6.275
-6.28
-6.305
-6.32
-6.325
-6.31
-6.315
-6.3
-6.325
-6.345
-6.355
-6.345
-6.355
-6.34
-6.34
-6.315
-6.29
-6.3
-6.36
-6.385
-6.45
-6.47
-6.475
-6.45
-6.425
-6.43
-6.43
-6.455
-6.495
-6.5
-6.495
-6.46
-6.43
-6.415
-6.42
-6.435
-6.455
-6.495
-6.52
-6.5
-6.455
-6.425
-6.395
-6.37
-6.375
-6.38
-6.395
-6.405
-6.395
-6.38
-6.345
-6.31
-6.295
-6.25
-6.23
-6.225
-6.24
-6.25
-6.26
-6.255
-6.235
-6.215
-6.23
-6.225
-6.22
-6.23
-6.22
-6.195
-6.195
-6.205
-6.195
-6.23
-6.25
-6.275
-6.275
-6.3
-6.295
-6.27
-6.245
-6.22
-6.24
-6.255
-6.28
-6.31
-6.305
-6.28
-6.27
-6.26
-6.265
-6.275
-6.295
-6.29
-6.285
-6.315
-6.315
-6.32
-6.31
-6.29
-6.285
-6.285
-6.29
-6.31
-6.32
-6.335
-6.325
-6.305
-6.3
-6.265
-6.26
-6.24
-6.25
-6.265
-6.305
-6.355
-6.385
-6.38
-6.37
-6.32
-6.3
-6.295
-6.295
-6.31
-6.31
-6.29
-6.275
-6.255
-6.245
-6.225
-6.23
-6.195
-6.195
-6.195
-6.21
-6.215
-6.2
-6.19
-6.17
-6.125
-6.105
-6.09
-6.065
-6.055
-6.065
-6.085
-6.15
-6.205
-6.225
-6.245
-6.23
-6.195
-6.18
-6.165
-6.17
-6.16
-6.17
-6.165
-6.18
-6.22
-6.25
-6.3
-6.3
-6.32
-6.31
-6.32
-6.315
-6.33
-6.35
-6.365
-6.375
-6.36
-6.375
-6.395
-6.415
-6.43
-6.435
-6.43
-6.425
-6.395
-6.405
-6.38
-6.375
-6.37
-6.39
-6.41
-6.435
-6.445
-6.415
-6.39
-6.395
-6.445
-6.49
-6.53
-6.555
-6.575
-6.56
-6.5
-6.41
-6.27
-6.135
-6.05
-6.03
-6.085
-6.13
-6.11
-5.98
-5.735
-5.435
-5.19
-5.075
-5.195
-5.5
-5.96
-6.39
-6.745
-6.98
-7.085
-7.165
-7.23
-7.33
-7.43
-7.52
-7.58
-7.565
-7.555
-7.535
-7.54
-7.525
-7.505
-7.495
-7.47
-7.43
-7.34
-7.2
-7.045
-6.865
-6.705
-6.605
-6.55
-6.525
-6.54
-6.505
-6.49
-6.455
-6.415
-6.41
-6.43
-6.445
-6.45
-6.445
-6.43
-6.4
-6.4
-6.415
-6.43
-6.44
-6.425
-6.42
-6.445
-6.48
-6.49
-6.49
-6.465
-6.44
-6.42
-6.415
-6.45
-6.505
-6.545
-6.585
-6.585
-6.56
-6.525
-6.52
-6.51
-6.535
-6.585
-6.585
-6.595
-6.595
-6.595
-6.56
-6.565
-6.57
-6.585
-6.58
-6.595
-6.585
-6.59
-6.595
-6.58
-6.58
-6.57
-6.545
-6.515
-6.51
-6.51
-6.53
-6.535
-6.535
-6.53
-6.51
-6.48
-6.44
-6.405
-6.375
-6.36
-6.38
-6.385
-6.385
-6.38
-6.375
-6.365
-6.355
-6.35
-6.365
-6.405
-6.425
-6.435
-6.425
-6.4
-6.395
-6.39
-6.395
-6.425
-6.415
-6.435
-6.445
-6.4
-6.38
-6.365
-6.37
-6.35
-6.385
-6.42
-6.455
-6.495
-6.495
-6.455
-6.455
-6.465
-6.47
-6.485
-6.505
-6.5
-6.51
-6.52
-6.54
-6.565
-6.585
-6.605
-6.625
-6.61
-6.6
-6.56
-6.535
-6.525
-6.51
-6.535
-6.555
-6.585
-6.585
-6.575
-6.565
-6.555
-6.555
-6.58
-6.585
-6.57
-6.555
-6.53
-6.505
-6.52
-6.54
-6.56
-6.575
-6.55
-6.525
-6.5
-6.465
-6.44
-6.44
-6.435
-6.42
-6.415
-6.415
-6.405
-6.41
-6.415
-6.4
-6.37
-6.37
-6.365
-6.38
-6.38
-6.395
-6.405
-6.45
-6.47
-6.48
-6.475
-6.47
-6.455
-6.415
-6.38
-6.38
-6.37
-6.4
-6.44
-6.49
-6.55
-6.585
-6.61
-6.625
-6.635
-6.625
-6.62
-6.63
-6.625
-6.625
-6.62
-6.635
-6.635
-6.63
-6.645
-6.645
-6.64
-6.64
-6.61
-6.63
-6.625
-6.62
-6.64
-6.63
-6.645
-6.645
-6.635
-6.635
-6.63
-6.67
-6.665
-6.69
-6.68
-6.65
-6.58
-6.49
-6.38
-6.265
-6.17
-6.12
-6.095
-6.085
-6.055
-5.955
-5.81
-5.6
-5.405
-5.28
-5.29
-5.495
-5.845
-6.3
-6.725
-7.07
-7.265
-7.39
-7.435
-7.475
-7.535
-7.58
-7.62
-7.635
-7.64
-7.65
-7.615
-7.6
-7.58
-7.575
-7.535
-7.505
-7.435
-7.3
-7.14
-6.975
-6.82
-6.69
-6.635
-6.61
-6.61
-6.625
-6.615
-6.58
-6.545
-6.525
-6.535
-6.575
-6.585
-6.585
-6.57
-6.535
-6.515
-6.51
-6.495
-6.515
-6.54
-6.555
-6.585
-6.605
-6.62
-6.63
-6.65
-6.655
-6.64
-6.65
-6.635
-6.64
-6.64
-6.62
-6.635
-6.65
-6.665
-6.68
-6.67
-6.655
-6.65
-6.65
-6.675
-6.7
-6.745
-6.745
-6.745
-6.715
-6.69
-6.66
-6.655
-6.675
-6.67
-6.66
-6.645
-6.59
-6.55
-6.525
-6.515
-6.52
-6.505
-6.495
-6.485
-6.45
-6.43
-6.41
-6.375
-6.33
-6.28
-6.235
-6.2
-6.175
-6.2
-6.25
-6.32
-6.41
-6.46
-6.495
-6.495
-6.47
-6.45
-6.415
-6.4
-6.41
-6.415
-6.405
-6.405
-6.4
-6.395
-6.395
-6.445
-6.47
-6.495
-6.505
-6.515
-6.525
-6.53
-6.505
-6.47
-6.46
-6.42
-6.445
-6.48
-6.525
-6.53
-6.53
-6.51
-6.505
-6.515
-6.5
-6.515
-6.52
-6.515
-6.515
-6.515
-6.51
-6.51
-6.53
-6.54
-6.55
-6.525
-6.505
-6.485
-6.49
-6.5
-6.525
-6.555
-6.54
-6.525
-6.51
-6.49
-6.47
-6.485
-6.465
-6.48
-6.5
-6.505
-6.53
-6.545
-6.53
-6.54
-6.515
-6.48
-6.495
-6.49
-6.515
-6.505
-6.465
-6.41
-6.31
-6.23
-6.135
-6.08
-6.06
-6.06
-6.095
-6.065
-5.955
-5.745
-5.47
-5.215
-5.06
-5.065
-5.29
-5.675
-6.13
-6.555
-6.885
-7.065
-7.135
-7.165
-7.19
-7.245
-7.33
-7.405
-7.44
-7.44
-7.425
-7.415
-7.375
-7.34
-7.33
-7.335
-7.36
-7.345
-7.31
-7.19
-7.02
-6.85
-6.69
-6.555
-6.465
-6.43
-6.38
-6.385
-6.39
-6.395
-6.4
-6.42
-6.39
-6.36
-6.345
-6.35
-6.35
-6.365
-6.385
-6.405
-6.425
-6.41
-6.4
-6.41
-6.41
-6.41
-6.405
-6.44
-6.465
-6.46
-6.455
-6.46
-6.45
-6.49
-6.505
-6.52
-6.53
-6.51
-6.505
-6.51
-6.53
-6.55
-6.55
-6.565
-6.55
-6.525
-6.505
-6.52
-6.525
-6.52
-6.545
-6.57
-6.625
-6.635
-6.61
-6.585
-6.56
-6.535
-6.51
-6.505
-6.5
-6.505
-6.505
-6.495
-6.485
-6.46
-6.45
-6.43
-6.4
-6.395
-6.385
-6.38
-6.385
-6.41
-6.405
-6.4
-6.39
-6.37
-6.355
-6.335
-6.31
-6.295
-6.325
-6.355
-6.365
-6.345
-6.34
-6.32
-6.325
-6.33
-6.34
-6.35
-6.34
-6.31
-6.285
-6.27
-6.285
-6.295
-6.31
-6.325
-6.355
-6.39
-6.405
-6.385
-6.375
-6.335
-6.315
-6.33
-6.325
-6.31
-6.325
-6.325
-6.35
-6.36
-6.365
-6.355
-6.335
-6.32
-6.305
-6.315
-6.32
-6.33
-6.34
-6.335
-6.31
-6.315
-6.315
-6.33
-6.365
-6.375
-6.365
-6.355
-6.34
-6.325
-6.31
-6.295
-6.3
-6.33
-6.35
-6.375
-6.375
-6.355
-6.355
-6.35
-6.345
-6.36
-6.37
-6.365
-6.35
-6.35
-6.34
-6.34
-6.325
-6.315
-6.315
-6.29
-6.28
-6.275
-6.27
-6.265
-6.31
-6.34
-6.37
-6.405
-6.425
-6.385
-6.355
-6.32
-6.29
-6.28
-6.265
-6.275
-6.3
-6.275
-6.275
-6.235
-6.205
-6.17
-6.14
-6.13
-6.125
-6.13
-6.155
-6.17
-6.17
-6.165
-6.165
-6.165
-6.175
-6.185
-6.185
-6.195
-6.17
-6.175
-6.185
-6.225
-6.235
-6.19
-6.18
-6.21
-6.22
-6.24
-6.265
-6.275
-6.28
-6.31
-6.345
-6.375
-6.395
-6.405
-6.4
-6.375
-6.37
-6.35
-6.355
-6.37
-6.355
-6.355
-6.355
-6.38
-6.38
-6.375
-6.36
-6.355
-6.38
-6.385
-6.39
-6.39
-6.385
-6.37
-6.39
-6.43
-6.45
-6.495
-6.49
-6.475
-6.405
-6.31
-6.195
-6.08
-6.0
-5.955
-5.96
-5.985
-5.96
-5.87
-5.65
-5.41
-5.16
-5.005
-5.0
-5.175
-5.53
-5.94
-6.35
-6.68
-6.86
-6.965
-7.02
-7.08
-7.165
-7.25
-7.31
-7.365
-7.38
-7.36
-7.37
-7.36
-7.36
-7.355
-7.32
-7.305
-7.25
-7.155
-6.985
-6.82
-6.68
-6.57
-6.5
-6.45
-6.435
-6.42
-6.41
-6.405
-6.39
-6.365
-6.345
-6.335
-6.34
-6.36
-6.375
-6.39
-6.395
-6.365
-6.32
-6.28
-6.28
-6.3
-6.34
-6.355
-6.395
-6.415
-6.425
-6.43
-6.42
-6.425
-6.4
-6.395
-6.385
-6.375
-6.385
-6.43
-6.455
-6.49
-6.5
-6.53
-6.51
-6.49
-6.48
-6.475
-6.465
-6.46
-6.46
-6.46
-6.45
-6.46
-6.475
-6.475
-6.5
-6.52
-6.52
-6.52
-6.505
-6.49
-6.455
-6.42
-6.4
-6.38
-6.365
-6.365
-6.385
-6.405
-6.425
-6.4
-6.36
-6.325
-6.27
-6.255
-6.22
-6.205
-6.215
-6.235
-6.245
-6.235
-6.24
-6.23
-6.22
-6.2
-6.205
-6.21
-6.195
-6.185
-6.185
-6.19
-6.21
-6.22
-6.22
-6.21
-6.2
-6.225
-6.23
-6.215
-6.195
-6.18
-6.175
-6.18
-6.205
-6.22
-6.25
-6.235
-6.225
-6.21
-6.21
-6.205
-6.205
-6.23
-6.245
-6.265
-6.285
-6.275
-6.25
-6.26
-6.255
-6.24
-6.255
-6.255
-6.25
-6.245
-6.245
-6.24
-6.245
-6.225
-6.22
-6.21
-6.205
-6.19
-6.205
-6.22
-6.235
-6.255
-6.26
-6.255
-6.26
-6.25
-6.255
-6.26
-6.27
-6.26
-6.225
-6.2
-6.17
-6.15
-6.16
-6.16
-6.155
-6.135
-6.135
-6.115
-6.105
-6.08
-6.075
-6.055
-6.035
-6.025
-6.03
-6.035
-6.035
-6.055
-6.07
-6.08
-6.11
-6.115
-6.12
-6.14
-6.125
-6.12
-6.12
-6.11
-6.1
-6.115
-6.145
-6.17
-6.19
-6.195
-6.195
-6.21
-6.225
-6.235
-6.25
-6.25
-6.28
-6.285
-6.275
-6.285
-6.285
-6.29
-6.285
-6.285
-6.28
-6.285
-6.28
-6.265
-6.275
-6.255
-6.25
-6.25
-6.275
-6.27
-6.3
-6.3
-6.29
-6.285
-6.27
-6.265
-6.275
-6.27
-6.31
-6.375
-6.4
-6.39
-6.3
-6.18
-6.05
-5.94
-5.915
-5.935
-5.91
-5.865
-5.735
-5.5
-5.225
-4.985
-4.865
-4.92
-5.14
-5.49
-5.91
-6.3
-6.56
-6.715
-6.805
-6.87
-6.95
-7.045
-7.14
-7.225
-7.235
-7.245
-7.235
-7.23
-7.265
-7.265
-7.26
-7.23
-7.19
-7.115
-7.025
-6.88
-6.735
-6.585
-6.445
-6.38
-6.31
-6.275
-6.275
-6.275
-6.29
-6.265
-6.255
-6.23
-6.235
-6.23
-6.24
-6.23
-6.235
-6.235
-6.245
-6.245
-6.22
-6.215
-6.215
-6.22
-6.2
-6.21
-6.215
-6.235
-6.24
-6.255
-6.26
-6.28
-6.245
-6.245
-6.245
-6.27
-6.31
-6.34
-6.365
-6.36
-6.34
-6.345
-6.38
-6.375
-6.395
-6.385
-6.365
-6.365
-6.375
-6.375
-6.38
-6.385
-6.4
-6.4
-6.385
-6.38
-6.375
-6.35
-6.32
-6.295
-6.29
-6.295
-6.275
-6.29
-6.295
-6.295
-6.28
-6.23
-6.185
-6.17
-6.18
-6.195
-6.215
-6.22
-6.2
-6.185
-6.175
-6.155
-6.135
-6.125
-6.135
-6.115
-6.12
-6.125
-6.135
-6.14
-6.14
-6.145
-6.145
-6.135
-6.12
-6.095
-6.09
-6.11
-6.13
-6.155
-6.15
-6.16
-6.16
-6.155
-6.135
-6.135
-6.155
-6.15
-6.16
-6.155
-6.16
-6.18
-6.16
-6.155
-6.135
-6.14
-6.155
-6.2
-6.25
-6.26
-6.245
-6.21
-6.155
-6.13
-6.135
-6.175
-6.205
-6.235
-6.225
-6.22
-6.2
-6.18
-6.145
-6.105
-6.06
-6.06
-6.095
-6.16
-6.205
-6.26
-6.275
-6.275
-6.235
-6.205
-6.15
-6.09
-6.045
-6.025
-6.05
-6.075
-6.095
-6.1
-6.115
-6.095
-6.055
-6.01
-5.99
-5.97
-5.97
-5.985
-5.99
-5.995
-5.995
-6.0
-6.005
-6.015
-6.035
-6.07
-6.09
-6.09
-6.085
-6.1
-6.105
-6.07
-6.055
-6.045
-6.045
-6.06
-6.085
-6.11
-6.145
-6.175
-6.2
-6.245
-6.245
-6.25
-6.26
-6.25
-6.235
-6.225
-6.225
-6.215
-6.22
-6.23
-6.25
-6.265
-6.26
-6.25
-6.24
-6.245
-6.245
-6.26
-6.255
-6.275
-6.3
-6.305
-6.285
-6.25
-6.235
-6.235
-6.26
-6.285
-6.33
-6.325
-6.265
-6.15
-6.02
-5.885
-5.805
-5.795
-5.85
-5.87
-5.805
-5.625
-5.38
-5.125
-4.935
-4.885
-5.005
-5.285
-5.655
-6.035
-6.38
-6.635
-6.81
-6.915
-6.985
-7.04
-7.085
-7.12
-7.14
-7.155
-7.165
-7.16
-7.17
-7.16
-7.145
-7.135
-7.105
-7.075
-6.97
-6.84
-6.685
-6.54
-6.4
-6.3
-6.25
-6.24
-6.26
-6.295
-6.305
-6.285
-6.245
-6.215
-6.17
-6.14
-6.155
-6.16
-6.165
-6.18
-6.19
-6.195
-6.215
-6.215
-6.21
-6.24
-6.22
-6.225
-6.215
-6.24
-6.265
-6.285
-6.305
-6.31
-6.305
-6.3
-6.285
-6.27
-6.285
-6.3
-6.315
-6.315
-6.305
-6.325
-6.335
-6.34
-6.335
-6.345
-6.355
-6.38
-6.4
-6.38
-6.36
-6.345
-6.35
-6.35
-6.36
-6.35
-6.335
-6.305
-6.3
-6.295
-6.3
-6.31
-6.31
-6.295
-6.25
-6.24
-6.26
-6.205
-6.19
-6.155
-6.115
-6.08
-6.085
-6.115
-6.135
-6.17
-6.18
-6.175
-6.155
-6.135
-6.15
-6.145
-6.15
-6.145
-6.15
-6.145
-6.155
-6.155
-6.14
-6.14
-6.135
-6.13
-6.125
-6.135
-6.14
-6.13
-6.13
-6.105
-6.085
-6.095
-6.115
-6.145
-6.175
-6.185
-6.17
-6.145
-6.095
-6.07
-6.12
-6.175
-6.23
-6.285
-6.295
-6.28
-6.24
-6.195
-6.17
-6.17
-6.175
-6.2
-6.2
-6.195
-6.19
-6.18
-6.185
-6.19
-6.21
-6.23
-6.24
-6.215
-6.195
-6.175
-6.15
-6.135
-6.12
-6.13
-6.13
-6.165
-6.165
-6.165
-6.15
-6.135
-6.135
-6.115
-6.105
-6.1
-6.07
-6.055
-6.04
-6.035
-6.03
-6.015
-6.025
-6.015
-6.02
-6.005
-6.005
-5.995
-5.995
-6.02
-6.055
-6.08
-6.095
-6.125
-6.115
-6.115
-6.08
-6.045
-6.01
-6.02
-6.02
-6.065
-6.11
-6.155
-6.185
-6.23
-6.265
-6.26
-6.26
-6.24
-6.21
-6.205
-6.185
-6.2
-6.23
-6.27
-6.32
-6.345
-6.35
-6.325
-6.3
-6.265
-6.23
-6.21
-6.205
-6.21
-6.23
-6.245
-6.25
-6.28
-6.285
-6.32
-6.35
-6.36
-6.345
-6.34
-6.32
-6.305
-6.285
-6.27
-6.21
-6.14
-6.035
-5.96
-5.9
-5.875
-5.86
-5.835
-5.72
-5.515
-5.255
-5.035
-4.89
-4.945
-5.165
-5.52
-5.925
-6.295
-6.6
-6.76
-6.865
-6.94
-7.015
-7.08
-7.165
-7.23
-7.27
-7.29
-7.325
-7.32
-7.32
-7.3
-7.28
-7.24
-7.205
-7.15
-7.06
-6.95
-6.815
-6.68
-6.555
-6.445
-6.36
-6.32
-6.295
-6.285
-6.275
-6.29
-6.29
-6.29
-6.27
-6.27
-6.265
-6.26
-6.25
-6.245
-6.23
-6.23
-6.215
-6.215
-6.195
-6.21
-6.245
-6.26
-6.31
-6.32
-6.315
-6.295
-6.28
-6.285
-6.3
-6.315
-6.34
-6.36
-6.34
-6.35
-6.355
-6.365
-6.37
-6.4
-6.41
-6.4
-6.385
-6.38
-6.38
-6.36
-6.37
-6.365
-6.395
-6.42
-6.445
-6.455
-6.465
-6.44
-6.42
-6.395
-6.375
-6.365
-6.355
-6.33
-6.315
-6.31
-6.295
-6.25
-6.245
-6.235
-6.235
-6.24
-6.235
-6.26
-6.26
-6.255
-6.24
-6.22
-6.2
-6.18
-6.15
-6.14
-6.13
-6.105
-6.125
-6.145
-6.18
-6.205
-6.22
-6.21
-6.2
-6.195
-6.205
-6.21
-6.2
-6.16
-6.155
-6.17
-6.165
-6.175
-6.19
-6.185
-6.175
-6.17
-6.18
-6.19
-6.225
-6.255
-6.245
-6.23
-6.21
-6.165
-6.17
-6.165
-6.195
-6.235
-6.26
-6.23
-6.235
-6.235
-6.23
-6.235
-6.24
-6.245
-6.25
-6.24
-6.225
-6.195
-6.195
-6.185
-6.18
-6.205
-6.215
-6.21
-6.22
-6.225
-6.2
-6.2
-6.195
-6.195
-6.19
-6.155
-6.105
-6.09
-6.09
-6.1
-6.115
-6.12
-6.1
-6.07
-6.035
-6.025
-6.01
-6.005
-6.005
-6.01
-6.0
-5.985
-5.97
-5.98
-5.98
-5.995
-6.02
-6.075
-6.075
-6.08
-6.075
-6.095
-6.11
-6.1
-6.095
-6.08
-6.085
-6.085
-6.11
-6.12
-6.135
-6.155
-6.16
-6.17
-6.185
-6.205
-6.245
-6.255
-6.265
-6.24
-6.225
-6.23
-6.24
-6.265
-6.27
-6.27
-6.255
-6.255
-6.245
-6.26
-6.25
-6.245
-6.215
-6.18
-6.19
-6.21
-6.24
-6.26
-6.3
-6.305
-6.31
-6.32
-6.315
-6.315
-6.315
-6.3
-6.245
-6.16
-6.04
-5.95
-5.885
-5.905
-5.945
-5.97
-5.9
-5.715
-5.455
-5.165
-4.955
-4.87
-5.01
-5.31
-5.725
-6.145
-6.5
-6.73
-6.865
-6.915
-6.96
-7.025
-7.09
-7.165
-7.205
-7.24
-7.255
-7.255
-7.245
-7.23
-7.22
-7.205
-7.195
-7.165
-7.095
-6.995
-6.845
-6.695
-6.57
-6.47
-6.375
-6.315
-6.265
-6.24
-6.235
-6.22
-6.22
-6.2
-6.185
-6.165
-6.16
-6.145
-6.145
-6.17
-6.19
-6.205
-6.205
-6.195
-6.185
-6.195
-6.22
-6.245
-6.275
-6.28
-6.28
-6.285
-6.285
-6.275
-6.255
-6.24
-6.23
-6.255
-6.29
-6.335
-6.345
-6.345
-6.33
-6.31
-6.28
-6.29
-6.3
-6.33
-6.36
-6.34
-6.36
-6.35
-6.335
-6.34
-6.335
-6.33
-6.325
-6.31
-6.29
-6.305
-6.3
-6.325
-6.325
-6.31
-6.29
-6.285
-6.235
-6.21
-6.2
-6.195
-6.19
-6.16
-6.13
-6.125
-6.1
-6.09
-6.085
-6.075
-6.07
-6.07
-6.075
-6.11
-6.14
-6.175
-6.18
-6.16
-6.15
-6.14
-6.15
-6.155
-6.175
-6.17
-6.185
-6.17
-6.16
-6.125
-6.105
-6.1
-6.1
-6.115
-6.14
-6.155
-6.17
-6.19
-6.18
-6.195
-6.185
-6.175
-6.155
-6.14
-6.15
-6.175
-6.195
-6.2
-6.205
-6.225
-6.23
-6.235
-6.215
-6.2
-6.185
-6.18
-6.175
-6.175
-6.155
-6.16
-6.165
-6.195
-6.23
-6.26
-6.27
-6.25
-6.21
-6.195
-6.19
-6.18
-6.18
-6.175
-6.18
-6.19
-6.215
-6.21
-6.205
-6.185
-6.165
-6.145
-6.13
-6.075
-6.065
-6.055
-6.09
-6.115
-6.105
-6.1
-6.075
-6.045
-6.01
-6.015
-6.005
-6.02
-6.01
-5.99
-5.99
-5.985
-5.97
-5.995
-6.02
-6.055
-6.08
-6.1
-6.105
-6.095
-6.075
-6.055
-6.06
-6.05
-6.075
-6.095
-6.11
-6.09
-6.1
-6.1
-6.115
-6.17
-6.22
-6.285
-6.315
-6.315
-6.305
-6.275
-6.265
-6.27
-6.26
-6.26
-6.25
-6.25
-6.225
-6.225
-6.25
-6.26
-6.275
-6.305
-6.28
-6.29
-6.295
-6.305
-6.29
-6.28
-6.265
-6.26
-6.3
-6.315
-6.355
-6.37
-6.37
-6.31
-6.215
-6.105
-5.99
-5.895
-5.87
-5.885
-5.895
-5.88
-5.79
-5.595
-5.37
-5.105
-4.94
-4.88
-5.005
-5.31
-5.765
-6.19
-6.55
-6.77
-6.895
-6.94
-6.975
-7.015
-7.1
-7.185
-7.25
-7.295
-7.305
-7.32
-7.31
-7.305
-7.275
-7.255
-7.22
-7.185
-7.135
-7.03
-6.885
-6.73
-6.57
-6.465
-6.365
-6.29
-6.26
-6.26
-6.27
-6.285
-6.29
-6.295
-6.275
-6.25
-6.235
-6.21
-6.2
-6.195
-6.215
-6.225
-6.21
-6.21
-6.2
-6.21
-6.23
-6.26
-6.3
-6.3
-6.285
-6.265
-6.245
-6.22
-6.215
-6.25
-6.28
-6.3
-6.33
-6.33
-6.34
-6.35
-6.37
-6.38
-6.36
-6.385
-6.38
-6.395
-6.36
-6.36
-6.355
-6.345
-6.36
-6.365
-6.38
-6.385
-6.38
-6.355
-6.35
-6.325
-6.33
-6.33
-6.315
-6.305
-6.28
-6.28
-6.3
-6.325
-6.32
-6.295
-6.25
-6.225
-6.19
-6.175
-6.17
-6.16
-6.175
-6.175
-6.175
-6.19
-6.205
-6.205
-6.2
-6.175
-6.16
-6.165
-6.165
-6.185
-6.18
-6.195
-6.195
-6.195
-6.175
-6.155
-6.135
-6.15
-6.17
-6.19
-6.215
-6.21
-6.195
-6.195
-6.19
-6.205
-6.22
-6.24
-6.255
-6.25
-6.255
-6.24
-6.225
-6.24
-6.22
-6.23
-6.225
-6.235
-6.245
-6.23
-6.23
-6.235
-6.23
-6.25
-6.27
-6.265
-6.275
-6.295
-6.29
-6.29
-6.295
-6.285
-6.27
-6.255
-6.235
-6.245
-6.24
-6.24
-6.25
-6.25
-6.245
-6.25
-6.23
-6.24
-6.23
-6.235
-6.24
-6.245
-6.225
-6.21
-6.17
-6.16
-6.14
-6.14
-6.145
-6.145
-6.125
-6.08
-6.055
-6.04
-6.035
-6.04
-6.055
-6.055
-6.06
-6.055
-6.07
-6.08
-6.075
-6.09
-6.09
-6.105
-6.145
-6.18
-6.205
-6.205
-6.18
-6.14
-6.085
-6.06
-6.08
-6.105
-6.145
-6.185
-6.215
-6.24
-6.245
-6.245
-6.245
-6.265
-6.305
-6.32
-6.36
-6.355
-6.345
-6.335
-6.34
-6.33
-6.325
-6.31
-6.32
-6.31
-6.33
-6.32
-6.325
-6.325
-6.315
-6.315
-6.32
-6.315
-6.295
-6.29
-6.3
-6.335
-6.385
-6.42
-6.46
-6.44
-6.41
-6.365
-6.32
-6.255
-6.15
-6.07
-6.0
-5.96
-5.955
-5.96
-5.97
-5.93
-5.815
-5.605
-5.385
-5.155
-5.02
-5.01
-5.155
-5.48
-5.89
-6.295
-6.595
-6.795
-6.92
-7.02
-7.105
-7.19
-7.255
-7.31
-7.325
-7.32
-7.315
-7.295
-7.265
-7.275
-7.28
-7.27
-7.25
-7.2
-7.11
-6.975
-6.82
-6.655
-6.505
-6.405
-6.31
-6.25
-6.22
-6.21
-6.24
-6.28
-6.305
-6.345
-6.38
-6.385
-6.38
-6.34
-6.285
-6.245
-6.235
-6.225
-6.235
-6.22
-6.23
-6.265
-6.27
-6.3
-6.32
-6.315
-6.335
-6.34
-6.33
-6.33
-6.32
-6.33
-6.355
-6.375
-6.4
-6.42
-6.435
-6.44
-6.44
-6.445
-6.445
-6.43
-6.42
-6.42
-6.42
-6.45
-6.46
-6.46
-6.47
-6.405
-6.38
-6.355
-6.32
-6.345
-6.36
-6.395
-6.405
-6.395
-6.37
-6.35
-6.34
-6.335
-6.325
-6.29
-6.27
-6.26
-6.27
-6.26
-6.275
-6.27
-6.27
-6.275
-6.275
-6.255
-6.25
-6.235
-6.21
-6.245
-6.235
-6.215
-6.215
-6.215
-6.205
-6.21
-6.21
-6.225
-6.21
-6.195
-6.17
-6.195
-6.225
-6.26
-6.27
-6.27
-6.27
-6.24
-6.23
-6.21
-6.21
-6.205
-6.205
-6.245
-6.26
-6.285
-6.28
-6.28
-6.265
-6.28
-6.3
-6.285
-6.29
-6.27
-6.225
-6.2
-6.18
-6.18
-6.195
-6.21
-6.25
-6.29
-6.325
-6.315
-6.3
-6.28
-6.25
-6.23
-6.225
-6.23
-6.265
-6.305
-6.325
-6.33
-6.3
-6.26
-6.22
-6.23
-6.195
-6.205
-6.215
-6.215
-6.185
-6.16
-6.15
-6.155
-6.175
-6.165
-6.15
-6.14
-6.105
-6.07
-6.055
-6.04
-6.055
-6.075
-6.1
-6.145
-6.16
-6.145
-6.135
-6.12
-6.115
-6.14
-6.165
-6.16
-6.165
-6.14
-6.115
-6.095
-6.07
-6.075
-6.075
-6.115
-6.14
-6.17
-6.175
-6.155
-6.155
-6.2
-6.235
-6.26
-6.29
-6.3
-6.31
-6.315
-6.3
-6.295
-6.265
-6.275
-6.275
-6.28
-6.32
-6.33
-6.33
-6.35
-6.355
-6.335
-6.285
-6.28
-6.26
-6.265
-6.28
-6.31
-6.335
-6.35
-6.345
-6.33
-6.315
-6.315
-6.31
-6.33
-6.36
-6.38
-6.365
-6.315
-6.21
-6.09
-5.965
-5.865
-5.84
-5.855
-5.855
-5.855
-5.775
-5.59
-5.38
-5.165
-5.05
-5.06
-5.23
-5.53
-5.93
-6.325
-6.62
-6.845
-7.005
-7.085
-7.16
-7.215
-7.27
-7.26
-7.25
-7.215
-7.195
-7.195
-7.21
-7.235
-7.245
-7.225
-7.17
-7.08
-6.955
-6.8
-6.635
-6.48
-6.38
-6.315
-6.275
-6.28
-6.295
-6.305
-6.305
-6.29
-6.255
-6.24
-6.215
-6.225
-6.235
-6.245
-6.24
-6.245
-6.245
-6.23
-6.265
-6.28
-6.295
-6.29
-6.295
-6.295
-6.31
-6.31
-6.3
-6.29
-6.285
-6.29
-6.32
-6.34
-6.35
-6.38
-6.37
-6.37
-6.36
-6.35
-6.345
-6.355
-6.38
-6.385
-6.415
-6.41
-6.39
-6.38
-6.39
-6.395
-6.4
-6.41
-6.44
-6.455
-6.47
-6.45
-6.45
-6.415
-6.37
-6.375
-6.36
-6.385
-6.39
-6.37
-6.345
-6.31
-6.265
-6.235
-6.235
-6.24
-6.245
-6.245
-6.23
-6.205
-6.175
-6.15
-6.13
-6.13
-6.13
-6.155
-6.19
-6.23
-6.23
-6.22
-6.195
-6.155
-6.155
-6.16
-6.17
-6.165
-6.165
-6.15
-6.16
-6.155
-6.14
-6.155
-6.17
-6.17
-6.185
-6.215
-6.22
-6.22
-6.22
-6.21
-6.19
-6.175
-6.16
-6.19
-6.215
-6.205
-6.19
-6.18
-6.16
-6.18
-6.215
-6.205
-6.18
-6.17
-6.19
-6.205
-6.235
-6.245
-6.25
-6.225
-6.195
-6.17
-6.16
-6.165
-6.21
-6.22
-6.21
-6.225
-6.22
-6.22
-6.195
-6.2
-6.19
-6.195
-6.19
-6.195
-6.2
-6.185
-6.19
-6.215
-6.235
-6.265
-6.265
-6.215
-6.16
-6.12
-6.085
-6.065
-6.075
-6.075
-6.08
-6.08
-6.085
-6.065
-6.02
-5.995
-5.995
-6.005
-6.03
-6.05
-6.07
-6.08
-6.08
-6.095
-6.075
-6.065
-6.065
-6.085
-6.095
-6.11
-6.1
-6.08
-6.04
-6.025
-6.02
-6.05
-6.085
-6.135
-6.17
-6.185
-6.18
-6.17
-6.165
-6.19
-6.22
-6.265
-6.255
-6.265
-6.255
-6.245
-6.23
-6.215
-6.215
-6.225
-6.25
-6.27
-6.285
-6.305
-6.31
-6.31
-6.29
-6.265
-6.25
-6.255
-6.245
-6.255
-6.225
-6.25
-6.285
-6.33
-6.365
-6.385
-6.395
-6.355
-6.265
-6.16
-6.045
-5.95
-5.895
-5.9
-5.95
-5.975
-5.94
-5.845
-5.645
-5.385
-5.145
-4.965
-4.92
-5.035
-5.34
-5.735
-6.155
-6.47
-6.64
-6.76
-6.81
-6.86
-6.935
-7.01
-7.09
-7.15
-7.175
-7.175
-7.15
-7.145
-7.145
-7.12
-7.135
-7.165
-7.175
-7.16
-7.07
-6.935
-6.76
-6.595
-6.46
-6.365
-6.3
-6.285
-6.27
-6.265
-6.22
-6.21
-6.215
-6.25
-6.255
-6.255
-6.23
-6.2
-6.195
-6.205
-6.2
-6.185
-6.175
-6.185
-6.18
-6.19
-6.18
-6.215
-6.255
-6.315
-6.325
-6.335
-6.31
-6.275
-6.28
-6.275
-6.275
-6.275
-6.275
-6.28
-6.27
-6.285
-6.315
-6.365
-6.385
-6.43
-6.44
-6.44
-6.4
-6.4
-6.37
-6.355
-6.355
-6.335
-6.35
-6.38
-6.395
-6.385
-6.375
-6.38
-6.405
-6.385
-6.335
-6.305
-6.29
-6.295
-6.265
-6.25
-6.215
-6.18
-6.17
-6.175
-6.17
-6.18
-6.195
-6.235
-6.245
-6.275
-6.255
-6.22
-6.175
-6.14
-6.13
-6.115
-6.105
-6.105
-6.105
-6.125
-6.145
-6.17
-6.165
-6.18
-6.165
-6.155
-6.125
-6.1
-6.08
-6.08
-6.095
-6.12
-6.155
-6.18
-6.175
-6.16
-6.155
-6.14
-6.13
-6.12
-6.095
-6.105
-6.14
-6.175
-6.21
-6.215
-6.21
-6.205
-6.2
-6.185
-6.165
-6.165
-6.16
-6.185
-6.2
-6.215
-6.225
-6.215
-6.19
-6.185
-6.185
-6.19
-6.195
-6.22
-6.215
-6.21
-6.18
-6.18
-6.21
-6.225
-6.22
-6.215
-6.2
-6.17
-6.14
-6.125
-6.075
-6.08
-6.105
-6.18
-6.225
-6.255
-6.245
-6.2
-6.125
-6.095
-6.065
-6.05
-6.055
-6.03
-6.01
-6.01
-6.025
-6.035
-6.055
-6.04
-6.005
-5.965
-5.95
-5.94
-5.95
-5.98
-6.015
-6.055
-6.095
-6.11
-6.105
-6.075
-6.06
-6.05
-6.07
-6.07
-6.08
-6.08
-6.09
-6.1
-6.135
-6.17
-6.2
-6.21
-6.205
-6.195
-6.19
-6.175
-6.195
-6.225
-6.235
-6.255
-6.28
-6.27
-6.25
-6.235
-6.215
-6.2
-6.19
-6.21
-6.245
-6.28
-6.31
-6.315
-6.32
-6.295
-6.285
-6.285
-6.27
-6.25
-6.245
-6.245
-6.25
-6.275
-6.32
-6.365
-6.38
-6.36
-6.31
-6.24
-6.135
-6.03
-5.98
-5.97
-5.97
-5.935
-5.83
-5.62
-5.375
-5.11
-4.925
-4.89
-5.04
-5.37
-5.835
-6.245
-6.555
-6.74
-6.8
-6.855
-6.925
-7.005
-7.07
-7.145
-7.195
-7.21
-7.2
-7.21
-7.185
-7.17
-7.185
-7.165
-7.12
-7.045
-6.92
-6.755
-6.58
-6.43
-6.355
-6.295
-6.23
-6.205
-6.225
-6.255
-6.31
-6.34
-6.35
-6.315
-6.29
-6.26
-6.235
-6.21
-6.18
-6.185
-6.205
-6.22
-6.235
-6.23
-6.245
-6.26
-6.265
-6.26
-6.23
-6.24
-6.25
-6.28
-6.31
-6.33
-6.35
-6.335
-6.345
-6.33
-6.32
-6.31
-6.305
-6.3
-6.305
-6.31
-6.34
-6.39
-6.47
-6.515
-6.515
-6.49
-6.445
-6.415
-6.385
-6.375
-6.345
-6.36
-6.36
-6.375
-6.395
-6.4
-6.405
-6.37
-6.365
-6.33
-6.3
-6.28
-6.24
-6.235
-6.225
-6.23
-6.22
-6.235
-6.285
-6.3
-6.29
-6.255
-6.19
-6.145
-6.11
-6.095
-6.13
-6.165
-6.2
-6.19
-6.2
-6.21
-6.185
-6.195
-6.175
-6.16
-6.15
-6.165
-6.17
-6.175
-6.18
-6.185
-6.165
-6.17
-6.175
-6.175
-6.205
-6.215
-6.22
-6.21
-6.215
-6.205
-6.195
-6.185
-6.185
-6.205
-6.225
-6.23
-6.25
-6.25
-6.24
-6.235
-6.22
-6.175
-6.165
-6.17
-6.21
-6.255
-6.31
-6.305
-6.325
-6.305
-6.27
-6.255
-6.26
-6.255
-6.255
-6.22
-6.21
-6.195
-6.2
-6.215
-6.22
-6.265
-6.26
-6.27
-6.27
-6.28
-6.275
-6.25
-6.225
-6.195
-6.18
-6.195
-6.21
-6.23
-6.195
-6.165
-6.14
-6.11
-6.125
-6.13
-6.145
-6.135
-6.125
-6.12
-6.1
-6.06
-6.03
-6.03
-6.025
-6.025
-6.05
-6.085
-6.09
-6.105
-6.12
-6.125
-6.125
-6.16
-6.15
-6.175
-6.16
-6.13
-6.09
-6.075
-6.08
-6.115
-6.16
-6.23
-6.25
-6.24
-6.23
-6.205
-6.215
-6.225
-6.285
-6.325
-6.36
-6.375
-6.365
-6.345
-6.31
-6.3
-6.285
-6.275
-6.27
-6.28
-6.335
-6.365
-6.395
-6.4
-6.365
-6.32
-6.295
-6.29
-6.3
-6.33
-6.34
-6.36
-6.39
-6.405
-6.4
-6.41
-6.365
-6.285
-6.195
-6.1
-6.035
-6.015
-6.01
-6.005
-5.915
-5.77
-5.565
-5.34
-5.145
-5.075
-5.15
-5.405
-5.74
-6.12
-6.45
-6.7
-6.87
-6.955
-7.04
-7.07
-7.145
-7.175
-7.215
-7.22
-7.215
-7.225
-7.21
-7.225
-7.25
-7.27
-7.26
-7.205
-7.11
-6.985
-6.815
-6.655
-6.52
-6.42
-6.33
-6.295
-6.29
-6.335
-6.365
-6.38
-6.375
-6.35
-6.305
-6.27
-6.255
-6.25
-6.26
-6.295
-6.325
-6.335
-6.34
-6.325
-6.295
-6.285
-6.265
-6.265
-6.275
-6.265
-6.255
-6.28
-6.3
-6.3
-6.33
-6.36
-6.37
-6.38
-6.39
-6.41
-6.415
-6.425
-6.43
-6.435
-6.435
-6.445
-6.48
-6.485
-6.485
-6.49
-6.475
-6.46
-6.455
-6.445
-6.445
-6.445
-6.445
-6.445
-6.455
-6.45
-6.435
-6.425
-6.395
-6.37
-6.36
-6.355
-6.345
-6.33
-6.315
-6.285
-6.26
-6.23
-6.205
-6.205
-6.225
-6.255
-6.26
-6.26
-6.275
-6.26
-6.245
-6.22
-6.2
-6.205
-6.185
-6.2
-6.21
-6.21
-6.19
-6.17
-6.16
-6.17
-6.18
-6.195
-6.21
-6.225
-6.22
-6.205
-6.19
-6.185
-6.175
-6.175
-6.185
-6.19
-6.2
-6.225
-6.245
-6.25
-6.215
-6.2
-6.185
-6.18
-6.21
-6.235
-6.22
-6.225
-6.24
-6.235
-6.24
-6.265
-6.27
-6.26
-6.25
-6.23
-6.23
-6.21
-6.22
-6.21
-6.21
-6.21
-6.21
-6.215
-6.24
-6.275
-6.29
-6.295
-6.3
-6.275
-6.245
-6.205
-6.195
-6.175
-6.21
-6.23
-6.25
-6.265
-6.285
-6.28
-6.265
-6.235
-6.225
-6.185
-6.18
-6.155
-6.155
-6.145
-6.125
-6.12
-6.105
-6.11
-6.12
-6.125
-6.135
-6.11
-6.095
-6.08
-6.06
-6.045
-6.025
-6.015
-6.0
-6.01
-6.02
-6.035
-6.07
-6.09
-6.125
-6.15
-6.145
-6.15
-6.135
-6.115
-6.065
-6.005
-5.985
-6.005
-6.075
-6.16
-6.205
-6.235
-6.245
-6.225
-6.22
-6.225
-6.25
-6.26
-6.255
-6.265
-6.275
-6.27
-6.27
-6.28
-6.29
-6.27
-6.27
-6.275
-6.29
-6.305
-6.315
-6.32
-6.305
-6.285
-6.235
-6.23
-6.235
-6.26
-6.295
-6.31
-6.305
-6.265
-6.255
-6.25
-6.265
-6.305
-6.37
-6.41
-6.435
-6.37
-6.275
-6.155
-6.06
-5.985
-5.965
-6.015
-6.05
-6.075
-6.075
-5.95
-5.72
-5.455
-5.2
-5.015
-4.975
-5.09
-5.35
-5.72
-6.1
-6.41
-6.64
-6.76
-6.835
-6.91
-6.995
-7.095
-7.13
-7.155
-7.17
-7.18
-7.185
-7.205
-7.23
-7.25
-7.215
-7.17
-7.115
-7.015
-6.89
-6.755
-6.63
-6.51
-6.395
-6.33
-6.29
-6.29
-6.32
-6.345
-6.32
-6.29
-6.265
-6.225
-6.2
-6.205
-6.215
-6.22
-6.215
-6.205
-6.2
-6.205
-6.2
-6.205
-6.19
-6.2
-6.19
-6.225
-6.23
-6.245
-6.26
-6.265
-6.295
-6.28
-6.285
-6.3
-6.29
-6.315
-6.31
-6.28
-6.3
-6.31
-6.35
-6.39
-6.405
-6.42
-6.395
-6.375
-6.36
-6.36
-6.355
-6.325
-6.34
-6.345
-6.375
-6.37
-6.39
-6.38
-6.37
-6.35
-6.335
-6.325
-6.315
-6.31
-6.29
-6.285
-6.275
-6.25
-6.2
-6.205
-6.2
-6.195
-6.185
-6.175
-6.155
-6.15
-6.155
-6.17
-6.215
-6.225
-6.23
-6.225
-6.195
-6.185
-6.145
-6.14
-6.1
-6.09
-6.095
-6.115
-6.15
-6.18
-6.195
-6.19
-6.18
-6.165
-6.145
-6.155
-6.155
-6.15
-6.145
-6.15
-6.155
-6.155
-6.175
-6.165
-6.18
-6.175
-6.18
-6.195
-6.185
-6.18
-6.185
-6.16
-6.185
-6.205
-6.245
-6.24
-6.24
-6.22
-6.195
-6.17
-6.195
-6.195
-6.205
-6.22
-6.22
-6.21
-6.2
-6.205
-6.195
-6.185
-6.2
-6.195
-6.2
-6.19
-6.185
-6.18
-6.18
-6.18
-6.2
-6.23
-6.235
-6.22
-6.215
-6.19
-6.18
-6.165
-6.155
-6.16
-6.175
-6.16
-6.135
-6.115
-6.095
-6.075
-6.03
-6.005
-5.97
-5.99
-6.015
-6.05
-6.065
-6.065
-6.055
-6.025
-5.995
-5.975
-5.965
-5.955
-5.97
-6.005
-6.035
-6.045
-6.085
-6.11
-6.135
-6.135
-6.105
-6.085
-6.045
-6.02
-6.0
-6.0
-6.015
-6.045
-6.1
-6.14
-6.17
-6.195
-6.21
-6.2
-6.19
-6.175
-6.185
-6.18
-6.205
-6.25
-6.295
-6.325
-6.315
-6.3
-6.3
-6.275
-6.25
-6.255
-6.245
-6.22
-6.225
-6.23
-6.25
-6.27
-6.285
-6.28
-6.28
-6.305
-6.29
-6.32
-6.325
-6.33
-6.35
-6.325
-6.29
-6.22
-6.145
-6.075
-6.02
-6.005
-6.03
-6.02
-5.96
-5.815
-5.565
-5.31
-5.1
-4.975
-5.04
-5.275
-5.63
-6.005
-6.345
-6.57
-6.7
-6.81
-6.87
-6.93
-7.015
-7.11
-7.205
-7.27
-7.29
-7.275
-7.26
-7.225
-7.205
-7.2
-7.195
-7.185
-7.155
-7.05
-6.93
-6.795
-6.67
-6.535
-6.425
-6.36
-6.305
-6.27
-6.26
-6.275
-6.265
-6.265
-6.255
-6.255
-6.23
-6.2
-6.175
-6.155
-6.145
-6.16
-6.18
-6.195
-6.235
-6.25
-6.23
-6.23
-6.23
-6.25
-6.285
-6.325
-6.32
-6.32
-6.315
-6.285
-6.27
-6.275
-6.29
-6.335
-6.35
-6.37
-6.365
-6.375
-6.335
-6.335
-6.325
-6.355
-6.39
-6.415
-6.4
-6.385
-6.38
-6.365
-6.345
-6.355
-6.365
-6.375
-6.39
-6.38
-6.365
-6.34
-6.325
-6.325
-6.335
-6.35
-6.305
-6.23
-6.2
-6.185
-6.19
-6.205
-6.225
-6.235
-6.225
-6.215
-6.19
-6.15
-6.1
-6.08
-6.075
-6.085
-6.135
-6.185
-6.235
-6.24
-6.225
-6.21
-6.205
-6.19
-6.165
-6.15
-6.115
-6.09
-6.095
-6.14
-6.18
-6.21
-6.22
-6.205
-6.16
-6.15
-6.135
-6.14
-6.155
-6.155
-6.16
-6.135
-6.14
-6.15
-6.19
-6.225
-6.27
-6.265
-6.25
-6.19
-6.175
-6.155
-6.15
-6.18
-6.205
-6.24
-6.28
-6.29
-6.285
-6.24
-6.2
-6.19
-6.17
-6.145
-6.135
-6.145
-6.165
-6.19
-6.205
-6.23
-6.22
-6.21
-6.195
-6.185
-6.185
-6.175
-6.18
-6.165
-6.18
-6.2
-6.215
-6.23
-6.235
-6.22
-6.185
-6.18
-6.17
-6.15
-6.13
-6.12
-6.12
-6.145
-6.125
-6.12
-6.1
-6.075
-6.065
-6.04
-6.025
-6.015
-5.99
-5.98
-5.97
-5.98
-6.02
-6.065
-6.085
-6.115
-6.085
-6.06
-6.04
-6.02
-6.01
-6.0
-5.98
-5.985
-6.005
-6.055
-6.09
-6.13
-6.125
-6.13
-6.13
-6.135
-6.17
-6.195
-6.225
-6.23
-6.22
-6.21
-6.2
-6.19
-6.19
-6.2
-6.18
-6.19
-6.23
-6.235
-6.255
-6.26
-6.22
-6.21
-6.205
-6.205
-6.225
-6.235
-6.25
-6.27
-6.265
-6.265
-6.27
-6.26
-6.26
-6.27
-6.3
-6.32
-6.31
-6.265
-6.175
-6.05
-5.94
-5.855
-5.81
-5.84
-5.865
-5.81
-5.7
-5.485
-5.245
-5.085
-5.055
-5.215
-5.545
-5.965
-6.36
-6.67
-6.855
-6.965
-7.06
-7.12
-7.185
-7.195
-7.21
-7.185
-7.155
-7.13
-7.11
-7.105
-7.115
-7.11
-7.12
-7.1
-7.045
-6.94
-6.805
-6.65
-6.5
-6.365
-6.285
-6.235
-6.23
-6.24
-6.265
-6.265
-6.225
-6.205
-6.18
-6.175
-6.2
-6.2
-6.19
-6.2
-6.185
-6.185
-6.21
-6.18
-6.165
-6.145
-6.14
-6.15
-6.175
-6.185
-6.205
-6.23
-6.25
-6.24
-6.23
-6.215
-6.225
-6.25
-6.29
-6.295
-6.315
-6.3
-6.34
-6.345
-6.38
-6.405
-6.39
-6.385
-6.36
-6.335
-6.325
-6.305
-6.28
-6.305
-6.315
-6.37
-6.41
-6.42
-6.415
-6.375
-6.34
-6.29
-6.27
-6.225
-6.225
-6.21
-6.19
-6.18
-6.195
-6.21
-6.26
-6.3
-6.295
-6.255
-6.195
-6.14
-6.115
-6.12
-6.115
-6.115
-6.12
-6.11
-6.115
-6.12
-6.115
-6.125
-6.125
-6.14
-6.125
-6.105
-6.07
-6.045
-6.06
-6.105
-6.115
-6.125
-6.095
-6.095
-6.09
-6.1
-6.125
-6.14
-6.15
-6.135
-6.135
-6.14
-6.155
-6.17
-6.17
-6.17
-6.175
-6.16
-6.155
-6.145
-6.145
-6.145
-6.14
-6.125
-6.135
-6.12
-6.13
-6.12
-6.11
-6.095
-6.105
-6.12
-6.155
-6.165
-6.17
-6.15
-6.14
-6.12
-6.09
-6.085
-6.075
-6.08
-6.105
-6.13
-6.175
-6.2
-6.19
-6.155
-6.13
-6.14
-6.135
-6.14
-6.15
-6.135
-6.13
-6.11
-6.085
-6.045
-6.035
-6.03
-6.04
-6.06
-6.07
-6.05
-6.015
-5.97
-5.955
-5.935
-5.925
-5.915
-5.905
-5.905
-5.915
-5.935
-5.94
-5.955
-5.975
-5.985
-6.015
-6.045
-6.04
-6.03
-6.02
-6.005
-5.995
-5.99
-5.935
-5.915
-5.925
-5.935
-5.98
-6.01
-6.03
-6.07
-6.135
-6.19
-6.235
-6.23
-6.205
-6.195
-6.17
-6.135
-6.13
-6.15
-6.165
-6.19
-6.22
-6.23
-6.235
-6.235
-6.21
-6.185
-6.165
-6.14
-6.155
-6.17
-6.195
-6.23
-6.25
-6.265
-6.285
-6.25
-6.25
-6.27
-6.25
-6.25
-6.255
-6.25
-6.19
-6.13
-6.055
-6.005
-5.98
-5.985
-5.945
-5.835
-5.655
-5.41
-5.185
-5.0
-4.93
-5.02
-5.235
-5.56
-5.905
-6.22
-6.445
-6.6
-6.72
-6.85
-6.93
-7.025
-7.1
-7.13
-7.15
-7.135
-7.13
-7.13
-7.105
-7.105
-7.09
-7.06
-6.985
-6.85
-6.735
-6.58
-6.46
-6.36
-6.265
-6.205
-6.165
-6.15
-6.145
-6.145
-6.155
-6.15
-6.14
-6.16
-6.13
-6.13
-6.14
-6.13
-6.115
-6.11
-6.095
-6.07
-6.105
-6.14
-6.18
-6.2
-6.215
-6.21
-6.215
-6.21
-6.17
-6.155
-6.125
-6.15
-6.19
-6.25
-6.295
-6.31
-6.3
-6.3
-6.305
-6.295
-6.28
-6.265
-6.28
-6.27
-6.265
-6.25
-6.26
-6.285
-6.3
-6.315
-6.33
-6.33
-6.33
-6.33
-6.31
-6.3
-6.28
-6.24
-6.195
-6.22
-6.245
-6.275
-6.295
-6.26
-6.215
-6.14
-6.1
-6.08
-6.1
-6.125
-6.145
-6.145
-6.125
-6.095
-6.085
-6.075
-6.07
-6.065
-6.05
-6.04
-6.04
-6.04
-6.045
-6.055
-6.07
-6.06
-6.055
-6.055
-6.045
-6.05
-6.055
-6.05
-6.06
-6.05
-6.015
-6.01
-6.02
-6.07
-6.125
-6.175
-6.17
-6.15
-6.095
-6.025
-6.02
-6.025
-6.05
-6.075
-6.11
-6.12
-6.12
-6.13
-6.12
-6.11
-6.1
-6.08
-6.08
-6.085
-6.06
-6.075
-6.07
-6.09
-6.1
-6.11
-6.11
-6.11
-6.095
-6.09
-6.075
-6.09
-6.105
-6.145
-6.165
-6.165
-6.15
-6.13
-6.115
-6.09
-6.075
-6.045
-6.045
-6.045
-6.06
-6.065
-6.075
-6.07
-6.08
-6.1
-6.1
-6.1
-6.085
-6.07
-6.085
-6.08
-6.07
-6.03
-6.01
-5.99
-6.0
-6.01
-6.01
-5.995
-5.965
-5.935
-5.915
-5.915
-5.92
-5.905
-5.865
-5.865
-5.86
-5.885
-5.9
-5.925
-5.95
-5.945
-5.95
-5.94
-5.935
-5.935
-5.955
-5.965
-5.965
-5.935
-5.92
-5.94
-5.94
-5.975
-6.01
-6.035
-6.07
-6.07
-6.065
-6.05
-6.055
-6.085
-6.105
-6.12
-6.14
-6.155
-6.18
-6.17
-6.17
-6.14
-6.135
-6.12
-6.135
-6.145
-6.15
-6.165
-6.185
-6.15
-6.17
-6.17
-6.175
-6.195
-6.205
-6.205
-6.2
-6.21
-6.21
-6.205
-6.215
-6.22
-6.245
-6.26
-6.245
-6.185
-6.115
-6.04
-6.01
-6.005
-6.02
-5.995
-5.93
-5.75
-5.48
-5.18
-4.94
-4.835
-4.925
-5.195
-5.59
-6.005
-6.335
-6.56
-6.68
-6.735
-6.805
-6.895
-6.995
-7.085
-7.15
-7.175
-7.17
-7.15
-7.135
-7.13
-7.155
-7.17
-7.15
-7.125
-7.035
-6.93
-6.8
-6.67
-6.54
-6.415
-6.305
-6.22
-6.175
-6.14
-6.14
-6.15
-6.175
-6.175
-6.16
-6.13
-6.125
-6.12
-6.105
-6.13
-6.115
-6.125
-6.135
-6.125
-6.115
-6.095
-6.1
-6.1
-6.125
-6.145
-6.15
-6.14
-6.15
-6.135
-6.14
-6.165
-6.185
-6.215
-6.245
-6.255
-6.24
-6.25
-6.265
-6.255
-6.245
-6.215
-6.205
-6.22
-6.25
-6.295
-6.325
-6.345
-6.345
-6.33
-6.315
-6.265
-6.24
-6.21
-6.24
-6.265
-6.28
-6.285
-6.26
-6.24
-6.215
-6.21
-6.175
-6.18
-6.165
-6.175
-6.195
-6.18
-6.16
-6.15
-6.135
-6.095
-6.065
-6.055
-6.06
-6.075
-6.08
-6.06
-6.085
-6.07
-6.065
-6.055
-6.05
-6.055
-6.06
-6.06
-6.06
-6.06
-6.055
-6.03
-6.035
-6.04
-6.045
-6.055
-6.07
-6.08
-6.08
-6.07
-6.06
-6.04
-6.05
-6.045
-6.06
-6.075
-6.08
-6.095
-6.09
-6.055
-6.055
-6.06
-6.085
-6.135
-6.19
-6.24
-6.28
-6.275
-6.27
-6.24
-6.225
-6.255
-6.275
-6.33
-6.325
-6.305
-6.265
-6.2
-6.18
-6.175
-6.2
-6.235
-6.315
-6.39
-6.49
-6.595
-6.695
-6.8
-6.82
-6.74
-6.5
-6.205
-5.79
-5.34
-4.92
-4.585
-4.42
-4.44
-4.58
-4.775
-5.005
-5.225
-5.405
-5.59
-5.735
-5.87
-5.975
-6.05
-6.135
-6.21
-6.27
-6.295
-6.275
-6.195
-6.125
-6.065
-6.005
-5.99
-5.96
-5.96
-5.935
-5.965
-5.95
-5.95
-5.955
-5.955
-5.97
-5.985
-6.025
-6.06
-6.07
-6.065
-6.06
-6.045
-6.025
-6.01
-5.995
-6.01
-6.04
-6.1
-6.17
-6.23
-6.265
-6.275
-6.275
-6.29
-6.29
-6.325
-6.365
-6.375
-6.39
-6.39
-6.39
-6.43
-6.46
-6.5
-6.52
-6.545
-6.55
-6.55
-6.555
-6.55
-6.585
-6.61
-6.615
-6.66
-6.67
-6.675
-6.675
-6.655
-6.645
-6.635
-6.645
-6.645
-6.65
-6.68
-6.69
-6.69
-6.69
-6.66
-6.65
-6.62
-6.595
-6.595
-6.595
-6.61
-6.605
-6.58
-6.555
-6.52
-6.495
-6.47
-6.465
-6.46
-6.44
-6.41
-6.365
-6.31
-6.285
-6.26
-6.275
-6.285
-6.305
-6.28
-6.265
-6.255
-6.235
-6.22
-6.205
-6.185
-6.19
-6.19
-6.19
-6.19
-6.21
-6.245
-6.28
-6.265
-6.23
-6.2
-6.17
-6.145
-6.13
-6.125
-6.14
-6.17
-6.18
-6.22
-6.255
-6.275
-6.275
-6.265
-6.225
-6.19
-6.17
-6.165
-6.16
-6.18
-6.21
-6.18
-6.195
-6.195
-6.19
-6.19
-6.185
-6.175
-6.155
-6.135
-6.12
-6.12
-6.13
-6.13
-6.175
-6.19
-6.19
-6.17
-6.165
-6.13
-6.125
-6.115
-6.1
-6.105
-6.095
-6.09
-6.085
-6.075
-6.065
-6.06
-6.075
-6.1
-6.14
-6.17
-6.175
-6.18
-6.14
-6.095
-6.07
-6.045
-6.01
-5.99
-5.97
-5.945
-5.96
-5.99
-6.005
-6.035
-6.07
-6.105
-6.14
-6.18
-6.2
-6.21
-6.18
-6.14
-6.085
-6.005
-5.96
-5.945
-5.94
-6.0
-6.08
-6.14
-6.18
-6.18
-6.175
-6.155
-6.125
-6.105
-6.105
-6.115
-6.12
-6.135
-6.115
-6.115
-6.105
-6.095
-6.105
-6.1
-6.095
-6.1
-6.095
-6.105
-6.11
-6.09
-6.105
-6.11
-6.115
-6.11
-6.105
-6.095
-6.095
-6.12
-6.145
-6.155
-6.16
-6.14
-6.145
-6.15
-6.175
-6.19
-6.225
-6.24
-6.225
-6.19
-6.135
-6.055
-5.99
-5.915
-5.885
-5.885
-5.89
-5.885
-5.815
-5.68
-5.45
-5.18
-4.96
-4.845
-4.915
-5.18
-5.565
-6.005
-6.375
-6.615
-6.76
-6.83
-6.905
-6.975
-7.045
-7.115
-7.165
-7.195
-7.215
-7.215
-7.205
-7.175
-7.165
-7.13
-7.11
-7.065
-6.975
-6.885
-6.76
-6.62
-6.49
-6.365
-6.265
-6.19
-6.15
-6.12
-6.1
-6.095
-6.09
-6.075
-6.075
-6.065
-6.04
-6.035
-6.045
-6.05
-6.055
-6.085
-6.115
-6.115
-6.125
-6.125
-6.11
-6.125
-6.12
-6.13
-6.135
-6.145
-6.165
-6.19
-6.165
-6.165
-6.165
-6.18
-6.175
-6.18
-6.18
-6.2
-6.215
-6.215
-6.24
-6.265
-6.3
-6.305
-6.295
-6.285
-6.28
-6.28
-6.27
-6.265
-6.26
-6.255
-6.255
-6.265
-6.27
-6.265
-6.245
-6.235
-6.22
-6.215
-6.205
-6.225
-6.235
-6.245
-6.22
-6.16
-6.135
-6.1
-6.09
-6.105
-6.105
-6.115
-6.105
-6.095
-6.06
-6.035
-6.005
-5.98
-5.98
-6.01
-6.05
-6.085
-6.09
-6.105
-6.1
-6.1
-6.105
-6.085
-6.07
-6.06
-6.075
-6.09
-6.105
-6.115
-6.125
-6.145
-6.155
-6.16
-6.135
-6.125
-6.115
-6.115
-6.115
-6.11
-6.12
-6.115
-6.125
-6.15
-6.18
-6.14
-6.13
-6.11
-6.095
-6.095
-6.11
-6.1
-6.12
-6.14
-6.18
-6.235
-6.285
-6.315
-6.265
-6.22
-6.18
-6.14
-6.125
-6.13
-6.165
-6.2
-6.23
-6.24
-6.215
-6.215
-6.19
-6.18
-6.165
-6.16
-6.18
-6.175
-6.17
-6.17
-6.165
-6.19
-6.18
-6.185
-6.18
-6.195
-6.195
-6.19
-6.19
-6.205
-6.2
-6.18
-6.195
-6.19
-6.215
-6.19
-6.185
-6.18
-6.19
-6.19
-6.21
-6.235
-6.215
-6.205
-6.175
-6.15
-6.15
-6.13
-6.14
-6.16
-6.185
-6.195
-6.22
-6.235
-6.23
-6.225
-6.2
-6.18
-6.185
-6.19
-6.22
-6.225
-6.225
-6.195
-6.205
-6.17
-6.14
-6.135
-6.14
-6.18
-6.22
-6.235
-6.23
-6.225
-6.2
-6.17
-6.15
-6.13
-6.14
-6.15
-6.16
-6.17
-6.19
-6.195
-6.165
-6.135
-6.075
-6.045
-6.025
-6.055
-6.1
-6.13
-6.14
-6.115
-6.09
-6.035
-6.0
-5.975
-5.97
-5.985
-5.975
-5.975
-5.99
-6.02
-6.075
-6.105
-6.15
-6.165
-6.17
-6.145
-6.125
-6.11
-6.08
-6.08
-6.065
-6.075
-6.07
-6.09
-6.125
-6.145
-6.155
-6.175
-6.205
-6.18
-6.175
-6.16
-6.18
-6.215
-6.27
-6.305
-6.33
-6.325
-6.295
-6.285
-6.27
-6.25
-6.24
-6.225
-6.225
-6.25
-6.28
-6.305
-6.345
-6.36
-6.35
-6.32
-6.29
-6.295
-6.305
-6.33
-6.35
-6.36
-6.33
-6.25
-6.135
-6.02
-5.91
-5.82
-5.8
-5.8
-5.85
-5.825
-5.76
-5.62
-5.415
-5.195
-5.035
-5.045
-5.215
-5.59
-6.04
-6.5
-6.85
-7.06
-7.165
-7.205
-7.225
-7.265
-7.295
-7.325
-7.345
-7.36
-7.33
-7.305
-7.305
-7.315
-7.335
-7.325
-7.31
-7.24
-7.165
-7.045
-6.88
-6.725
-6.56
-6.425
-6.34
-6.295
-6.28
-6.305
-6.33
-6.335
-6.305
-6.28
-6.25
-6.21
-6.2
-6.155
-6.135
-6.125
-6.125
-6.165
-6.195
-6.22
-6.285
-6.31
-6.305
-6.26
-6.23
-6.19
-6.18
-6.21
-6.25
-6.29
-6.305
-6.33
-6.325
-6.32
-6.33
-6.355
-6.36
-6.345
-6.325
-6.335
-6.325
-6.325
-6.325
-6.365
-6.37
-6.38
-6.41
-6.415
-6.42
-6.41
-6.38
-6.37
-6.385
-6.39
-6.385
-6.39
-6.385
-6.39
-6.35
-6.335
-6.295
-6.275
-6.245
-6.225
-6.205
-6.22
-6.235
-6.27
-6.31
-6.32
-6.305
-6.26
-6.195
-6.175
-6.17
-6.175
-6.18
-6.16
-6.14
-6.125
-6.12
-6.115
-6.135
-6.15
-6.16
-6.15
-6.15
-6.135
-6.135
-6.145
-6.15
-6.145
-6.13
-6.12
-6.11
-6.1
-6.085
-6.075
-6.065
-6.065
-6.085
-6.115
-6.16
-6.22
-6.26
-6.27
-6.245
-6.205
-6.165
-6.145
-6.135
-6.15
-6.17
-6.165
-6.165
-6.185
-6.18
-6.175
-6.195
-6.2
-6.2
-6.195
-6.19
-6.195
-6.185
-6.175
-6.19
-6.17
-6.17
-6.14
-6.155
-6.14
-6.15
-6.175
-6.175
-6.18
-6.17
-6.15
-6.17
-6.185
-6.18
-6.175
-6.195
-6.205
-6.23
-6.215
-6.22
-6.225
-6.225
-6.25
-6.25
-6.24
-6.22
-6.185
-6.17
-6.15
-6.135
-6.115
-6.095
-6.115
-6.14
-6.2
-6.22
-6.21
-6.145
-6.12
-6.085
-6.035
-6.025
-6.0
-5.99
-6.01
-6.02
-6.015
-6.03
-6.015
-6.0
-6.005
-5.995
-5.975
-5.98
-5.98
-6.0
-6.035
-6.08
-6.12
-6.12
-6.12
-6.1
-6.075
-6.035
-5.995
-5.975
-5.95
-5.95
-5.995
-6.035
-6.09
-6.135
-6.155
-6.185
-6.215
-6.235
-6.26
-6.265
-6.255
-6.24
-6.215
-6.215
-6.23
-6.26
-6.265
-6.285
-6.3
-6.29
-6.28
-6.265
-6.25
-6.23
-6.23
-6.245
-6.29
-6.32
-6.335
-6.34
-6.315
-6.285
-6.27
-6.275
-6.27
-6.305
-6.37
-6.37
-6.41
-6.39
-6.345
-6.28
-6.19
-6.105
-6.04
-5.995
-5.96
-5.925
-5.84
-5.7
-5.495
-5.245
-5.06
-4.995
-5.1
-5.375
-5.745
-6.145
-6.48
-6.725
-6.88
-6.965
-7.025
-7.075
-7.155
-7.23
-7.29
-7.345
-7.355
-7.335
-7.32
-7.32
-7.295
-7.285
-7.265
-7.245
-7.185
-7.095
-6.95
-6.79
-6.625
-6.5
-6.395
-6.315
-6.27
-6.245
-6.26
-6.275
-6.285
-6.27
-6.23
-6.225
-6.19
-6.205
-6.185
-6.21
-6.2
-6.195
-6.185
-6.175
-6.17
-6.175
-6.18
-6.215
-6.26
-6.305
-6.32
-6.325
-6.295
-6.265
-6.26
-6.24
-6.25
-6.265
-6.295
-6.295
-6.285
-6.3
-6.31
-6.335
-6.345
-6.35
-6.32
-6.305
-6.32
-6.34
-6.37
-6.38
-6.365
-6.39
-6.38
-6.38
-6.35
-6.325
-6.3
-6.325
-6.325
-6.345
-6.34
-6.325
-6.31
-6.295
-6.265
-6.235
-6.195
-6.18
-6.17
-6.185
-6.17
-6.165
-6.15
-6.145
-6.13
-6.115
-6.105
-6.09
-6.13
-6.145
-6.165
-6.16
-6.15
-6.155
-6.14
-6.125
-6.105
-6.105
-6.085
-6.055
-6.06
-6.025
-6.035
-6.055
-6.1
-6.145
-6.185
-6.21
-6.19
-6.175
-6.145
-6.145
-6.145
-6.13
-6.145
-6.12
-6.135
-6.17
-6.17
-6.18
-6.165
-6.15
-6.13
-6.12
-6.165
-6.195
-6.21
-6.21
-6.22
-6.195
-6.18
-6.175
-6.16
-6.155
-6.145
-6.125
-6.095
-6.07
-6.07
-6.11
-6.165
-6.205
-6.23
-6.245
-6.2
-6.17
-6.13
-6.11
-6.125
-6.155
-6.18
-6.18
-6.17
-6.175
-6.16
-6.165
-6.135
-6.1
-6.095
-6.12
-6.165
-6.175
-6.215
-6.19
-6.175
-6.15
-6.085
-6.075
-6.045
-6.03
-6.0
-5.975
-5.955
-5.94
-5.945
-5.97
-5.96
-5.94
-5.935
-5.915
-5.92
-5.945
-5.94
-5.905
-5.92
-5.925
-5.96
-6.005
-6.045
-6.07
-6.085
-6.08
-6.02
-5.965
-5.92
-5.925
-5.97
-6.03
-6.075
-6.115
-6.13
-6.145
-6.15
-6.155
-6.175
-6.185
-6.185
-6.21
-6.21
-6.225
-6.23
-6.24
-6.26
-6.27
-6.285
-6.26
-6.225
-6.2
-6.195
-6.19
-6.205
-6.215
-6.235
-6.24
-6.25
-6.255
-6.245
-6.255
-6.255
-6.29
-6.31
-6.315
-6.3
-6.285
-6.24
-6.18
-6.08
-6.02
-5.98
-5.97
-5.985
-6.0
-5.95
-5.81
-5.55
-5.26
-5.005
-4.88
-4.985
-5.275
-5.67
-6.11
-6.485
-6.74
-6.885
-6.95
-7.005
-7.065
-7.14
-7.245
-7.325
-7.375
-7.365
-7.355
-7.32
-7.29
-7.265
-7.255
-7.22
-7.145
-7.035
-6.895
-6.705
-6.535
-6.395
-6.315
-6.255
-6.245
-6.22
-6.2
-6.165
-6.145
-6.155
-6.18
-6.23
-6.25
-6.25
-6.255
-6.245
-6.19
-6.18
-6.125
-6.115
-6.1
-6.13
-6.15
-6.17
-6.215
-6.225
-6.215
-6.225
-6.2
-6.2
-6.23
-6.28
-6.3
-6.33
-6.31
-6.295
-6.27
-6.29
-6.29
-6.3
-6.3
-6.315
-6.305
-6.295
-6.29
-6.305
-6.32
-6.315
-6.32
-6.305
-6.29
-6.275
-6.27
-6.27
-6.29
-6.325
-6.375
-6.39
-6.365
-6.32
-6.29
-6.245
-6.23
-6.23
-6.235
-6.23
-6.215
-6.195
-6.18
-6.13
-6.125
-6.1
-6.08
-6.065
-6.075
-6.07
-6.075
-6.065
-6.07
-6.065
-6.07
-6.075
-6.07
-6.07
-6.085
-6.085
-6.095
-6.115
-6.075
-6.075
-6.075
-6.07
-6.08
-6.08
-6.055
-6.035
-6.015
-6.025
-6.08
-6.12
-6.19
-6.21
-6.225
-6.2
-6.165
-6.14
-6.14
-6.125
-6.14
-6.13
-6.145
-6.13
-6.13
-6.15
-6.16
-6.16
-6.155
-6.155
-6.155
-6.155
-6.15
-6.175
-6.17
-6.16
-6.16
-6.135
-6.105
-6.125
-6.14
-6.14
-6.155
-6.155
-6.17
-6.19
-6.19
-6.195
-6.2
-6.2
-6.175
-6.155
-6.145
-6.14
-6.145
-6.135
-6.14
-6.16
-6.2
-6.24
-6.25
-6.23
-6.21
-6.175
-6.145
-6.145
-6.13
-6.135
-6.14
-6.14
-6.125
-6.1
-6.08
-6.075
-6.045
-6.02
-5.995
-5.98
-5.98
-5.975
-6.0
-6.005
-6.01
-5.99
-5.97
-5.94
-5.93
-5.95
-5.99
-6.025
-6.075
-6.105
-6.12
-6.12
-6.09
-6.075
-6.03
-5.98
-5.935
-5.935
-6.015
-6.09
-6.14
-6.19
-6.22
-6.21
-6.2
-6.18
-6.18
-6.235
-6.27
-6.28
-6.285
-6.28
-6.26
-6.245
-6.24
-6.245
-6.23
-6.225
-6.225
-6.215
-6.22
-6.245
-6.255
-6.3
-6.34
-6.375
-6.395
-6.38
-6.34
-6.315
-6.295
-6.28
-6.285
-6.29
-6.315
-6.34
-6.335
-6.29
-6.22
-6.12
-5.975
-5.87
-5.8
-5.795
-5.84
-5.87
-5.865
-5.725
-5.47
-5.205
-4.965
-4.88
-4.985
-5.295
-5.745
-6.24
-6.655
-6.955
-7.105
-7.19
-7.23
-7.285
-7.35
-7.45
-7.52
-7.52
-7.49
-7.44
-7.395
-7.365
-7.355
-7.335
-7.315
-7.265
-7.205
-7.08
-6.905
-6.725
-6.56
-6.425
-6.35
-6.32
-6.3
-6.275
-6.26
-6.245
-6.235
-6.24
-6.23
-6.235
-6.23
-6.235
-6.235
-6.23
-6.23
-6.23
-6.22
-6.215
-6.215
-6.25
-6.245
-6.27
-6.27
-6.295
-6.285
-6.29
-6.295
-6.27
-6.28
-6.265
-6.245
-6.26
-6.255
-6.275
-6.32
-6.385
-6.38
-6.405
-6.42
-6.425
-6.425
-6.395
-6.4
-6.41
-6.44
-6.455
-6.45
-6.415
-6.395
-6.385
-6.385
-6.395
-6.38
-6.405
-6.365
-6.355
-6.335
-6.325
-6.325
-6.32
-6.31
-6.29
-6.26
-6.215
-6.195
-6.205
-6.22
-6.2
-6.2
-6.195
-6.16
-6.12
-6.08
-6.09
-6.145
-6.205
-6.235
-6.23
-6.205
-6.17
-6.15
-6.105
-6.105
-6.105
-6.12
-6.15
-6.185
-6.195
-6.205
-6.21
-6.2
-6.215
-6.185
-6.15
-6.1
-6.095
-6.12
-6.16
-6.2
-6.22
-6.21
-6.205
-6.19
-6.185
-6.195
-6.18
-6.19
-6.185
-6.185
-6.215
-6.24
-6.26
-6.24
-6.245
-6.23
-6.225
-6.215
-6.19
-6.2
-6.17
-6.16
-6.17
-6.185
-6.175
-6.15
-6.14
-6.13
-6.13
-6.145
-6.185
-6.25
-6.265
-6.265
-6.23
-6.2
-6.18
-6.165
-6.165
-6.165
-6.2
-6.21
-6.225
-6.21
-6.18
-6.165
-6.18
-6.185
-6.205
-6.185
-6.175
-6.155
-6.16
-6.15
-6.155
-6.14
-6.125
-6.095
-6.08
-6.05
-6.035
-6.015
-6.02
-6.015
-6.005
-5.985
-5.965
-5.955
-5.955
-5.955
-5.99
-6.015
-6.045
-6.065
-6.075
-6.065
-6.055
-6.04
-6.025
-6.025
-6.055
-6.035
-6.035
-6.02
-6.03
-6.045
-6.075
-6.105
-6.13
-6.15
-6.17
-6.185
-6.195
-6.2
-6.195
-6.215
-6.225
-6.265
-6.275
-6.27
-6.255
-6.245
-6.24
-6.275
-6.27
-6.27
-6.28
-6.3
-6.27
-6.27
-6.275
-6.265
-6.255
-6.255
-6.25
-6.25
-6.255
-6.23
-6.24
-6.265
-6.305
-6.355
-6.39
-6.4
-6.37
-6.305
-6.205
-6.065
-5.93
-5.875
-5.87
-5.9
-5.92
-5.89
-5.74
-5.5
-5.22
-4.99
-4.85
-4.88
-5.105
-5.475
-5.93
-6.37
-6.69
-6.895
-7.025
-7.11
-7.19
-7.245
-7.29
-7.345
-7.35
-7.34
-7.355
-7.365
-7.365
-7.4
-7.385
-7.39
-7.375
-7.325
-7.235
-7.095
-6.925
-6.74
-6.58
-6.45
-6.38
-6.335
-6.29
-6.265
-6.24
-6.23
-6.205
-6.2
-6.195
-6.205
-6.22
-6.22
-6.2
-6.19
-6.18
-6.19
-6.19
-6.21
-6.205
-6.22
-6.245
-6.255
-6.255
-6.27
-6.255
-6.235
-6.245
-6.24
-6.235
-6.26
-6.265
-6.26
-6.28
-6.29
-6.285
-6.3
-6.295
-6.29
-6.275
-6.275
-6.285
-6.31
-6.32
-6.315
-6.32
-6.335
-6.35
-6.415
-6.46
-6.46
-6.45
-6.42
-6.415
-6.41
-6.375
-6.355
-6.355
-6.34
-6.34
-6.34
-6.32
-6.305
-6.275
-6.25
-6.245
-6.2
-6.175
-6.16
-6.165
-6.18
-6.2
-6.2
-6.205
-6.18
-6.155
-6.135
-6.11
-6.12
-6.11
-6.115
-6.12
-6.11
-6.1
-6.085
-6.105
-6.13
-6.125
-6.125
-6.115
-6.125
-6.085
-6.07
-6.03
-6.03
-6.04
-6.085
-6.125
-6.13
-6.135
-6.125
-6.135
-6.17
-6.165
-6.15
-6.135
-6.15
-6.155
-6.145
-6.16
-6.145
-6.13
-6.12
-6.13
-6.125
-6.11
-6.115
-6.145
-6.135
-6.165
-6.175
-6.18
-6.19
-6.205
-6.195
-6.195
-6.19
-6.19
-6.17
-6.155
-6.15
-6.165
-6.145
-6.15
-6.14
-6.15
-6.14
-6.135
-6.115
-6.115
-6.115
-6.12
-6.145
-6.18
-6.2
-6.2
-6.21
-6.21
-6.195
-6.185
-6.18
-6.17
-6.14
-6.115
-6.105
-6.11
-6.115
-6.13
-6.135
-6.16
-6.145
-6.14
-6.115
-6.09
-6.065
-6.035
-6.0
-6.01
-5.99
-5.98
-5.98
-5.975
-5.965
-5.955
-5.94
-5.93
-5.925
-5.95
-5.96
-5.995
-6.055
-6.08
-6.085
-6.09
-6.06
-6.045
-6.025
-6.005
-6.015
-6.02
-6.025
-6.06
-6.1
-6.13
-6.165
-6.175
-6.185
-6.205
-6.22
-6.25
-6.23
-6.225
-6.215
-6.225
-6.24
-6.275
-6.3
-6.315
-6.335
-6.335
-6.32
-6.31
-6.3
-6.28
-6.28
-6.28
-6.27
-6.26
-6.255
-6.27
-6.265
-6.29
-6.31
-6.33
-6.36
-6.39
-6.375
-6.34
-6.24
-6.11
-5.99
-5.88
-5.825
-5.835
-5.85
-5.85
-5.795
-5.665
-5.435
-5.175
-4.92
-4.76
-4.795
-5.01
-5.45
-6.025
-6.57
-7.005
-7.25
-7.365
-7.395
-7.39
-7.405
-7.425
-7.45
-7.445
-7.455
-7.48
-7.51
-7.51
-7.495
-7.45
-7.39
-7.365
-7.31
-7.24
-7.11
-6.94
-6.74
-6.565
-6.425
-6.32
-6.285
-6.265
-6.275
-6.27
-6.32
-6.34
-6.34
-6.31
-6.27
-6.245
-6.25
-6.26
-6.27
-6.265
-6.27
-6.295
-6.26
-6.275
-6.295
-6.295
-6.335
-6.35
-6.365
-6.355
-6.35
-6.33
-6.315
-6.33
-6.35
-6.38
-6.415
-6.44
-6.465
-6.49
-6.49
-6.47
-6.455
-6.43
-6.43
-6.425
-6.425
-6.42
-6.435
-6.455
-6.495
-6.505
-6.475
-6.45
-6.445
-6.45
-6.45
-6.435
-6.415
-6.39
-6.37
-6.375
-6.4
-6.44
-6.4
-6.39
-6.34
-6.29
-6.27
-6.24
-6.22
-6.225
-6.23
-6.225
-6.225
-6.25
-6.255
-6.25
-6.22
-6.2
-6.17
-6.17
-6.17
-6.19
-6.215
-6.235
-6.24
-6.24
-6.25
-6.26
-6.245
-6.245
-6.21
-6.225
-6.215
-6.22
-6.215
-6.245
-6.245
-6.245
-6.23
-6.22
-6.225
-6.22
-6.21
-6.19
-6.175
-6.165
-6.175
-6.21
-6.27
-6.325
-6.345
-6.34
-6.29
-6.245
-6.215
-6.195
-6.205
-6.23
-6.265
-6.295
-6.31
-6.315
-6.29
-6.26
-6.23
-6.21
-6.2
-6.205
-6.2
-6.215
-6.235
-6.27
-6.3
-6.335
-6.345
-6.325
-6.285
-6.27
-6.24
-6.23
-6.23
-6.23
-6.255
-6.275
-6.31
-6.295
-6.28
-6.245
-6.235
-6.235
-6.235
-6.235
-6.245
-6.225
-6.195
-6.17
-6.14
-6.125
-6.11
-6.105
-6.08
-6.065
-6.0
-5.955
-5.935
-5.925
-5.95
-5.995
-6.055
-6.09
-6.13
-6.13
-6.135
-6.125
-6.13
-6.11
-6.115
-6.11
-6.09
-6.085
-6.07
-6.06
-6.055
-6.06
-6.065
-6.08
-6.125
-6.13
-6.145
-6.16
-6.18
-6.195
-6.195
-6.205
-6.23
-6.305
-6.375
-6.42
-6.405
-6.38
-6.345
-6.295
-6.27
-6.265
-6.27
-6.27
-6.275
-6.26
-6.265
-6.29
-6.29
-6.31
-6.33
-6.345
-6.36
-6.36
-6.34
-6.33
-6.335
-6.35
-6.375
-6.39
-6.395
-6.365
-6.3
-6.2
-6.065
-5.94
-5.835
-5.77
-5.75
-5.77
-5.74
-5.66
-5.515
-5.325
-5.11
-4.945
-4.865
-4.935
-5.185
-5.61
-6.125
-6.595
-6.95
-7.175
-7.275
-7.33
-7.365
-7.4
-7.425
-7.45
-7.48
-7.49
-7.53
-7.535
-7.51
-7.46
-7.44
-7.42
-7.39
-7.34
-7.245
-7.09
-6.915
-6.765
-6.625
-6.51
-6.395
-6.34
-6.33
-6.335
-6.36
-6.37
-6.365
-6.355
-6.345
-6.32
-6.285
-6.245
-6.235
-6.255
-6.23
-6.22
-6.215
-6.22
-6.28
-6.33
-6.37
-6.385
-6.37
-6.345
-6.315
-6.29
-6.275
-6.275
-6.285
-6.285
-6.315
-6.33
-6.35
-6.38
-6.4
-6.415
-6.425
-6.435
-6.455
-6.485
-6.52
-6.55
-6.55
-6.54
-6.495
-6.49
-6.49
-6.505
-6.515
-6.5
-6.5
-6.485
-6.455
-6.435
-6.44
-6.425
-6.42
-6.425
-6.38
-6.385
-6.365
-6.375
-6.375
-6.375
-6.33
-6.29
-6.255
-6.19
-6.195
-6.21
-6.24
-6.27
-6.3
-6.285
-6.23
-6.2
-6.185
-6.195
-6.19
-6.185
-6.17
-6.16
-6.185
-6.205
-6.19
-6.205
-6.19
-6.195
-6.2
-6.195
-6.19
-6.17
-6.155
-6.14
-6.14
-6.145
-6.155
-6.17
-6.17
-6.17
-6.155
-6.155
-6.18
-6.19
-6.22
-6.245
-6.24
-6.235
-6.225
-6.215
-6.205
-6.2
-6.205
-6.215
-6.25
-6.245
-6.24
-6.25
-6.245
-6.23
-6.22
-6.2
-6.19
-6.18
-6.19
-6.195
-6.21
-6.21
-6.21
-6.19
-6.19
-6.2
-6.175
-6.175
-6.19
-6.215
-6.245
-6.29
-6.345
-6.355
-6.33
-6.29
-6.26
-6.23
-6.2
-6.195
-6.185
-6.195
-6.205
-6.195
-6.175
-6.145
-6.155
-6.175
-6.185
-6.195
-6.175
-6.125
-6.06
-6.02
-6.03
-6.06
-6.1
-6.105
-6.08
-6.03
-6.015
-5.98
-5.975
-5.99
-6.0
-6.025
-6.075
-6.095
-6.115
-6.135
-6.14
-6.125
-6.065
-5.995
-5.91
-5.855
-5.865
-5.94
-6.01
-6.095
-6.125
-6.16
-6.13
-6.13
-6.125
-6.13
-6.135
-6.135
-6.15
-6.15
-6.145
-6.135
-6.135
-6.155
-6.155
-6.18
-6.185
-6.185
-6.185
-6.165
-6.145
-6.13
-6.12
-6.13
-6.16
-6.215
-6.26
-6.29
-6.285
-6.28
-6.25
-6.22
-6.215
-6.245
-6.255
-6.27
-6.265
-6.225
-6.165
-6.06
-5.955
-5.86
-5.79
-5.765
-5.76
-5.7
-5.595
-5.395
-5.165
-4.925
-4.785
-4.805
-5.045
-5.435
-5.895
-6.335
-6.66
-6.9
-7.06
-7.17
-7.25
-7.335
-7.34
-7.335
-7.33
-7.33
-7.305
-7.285
-7.275
-7.26
-7.22
-7.18
-7.105
-6.96
-6.79
-6.64
-6.52
-6.425
-6.34
-6.305
-6.26
-6.235
-6.215
-6.225
-6.22
-6.21
-6.2
-6.21
-6.19
-6.16
-6.165
-6.155
-6.14
-6.13
-6.135
-6.135
-6.175
-6.205
-6.24
-6.265
-6.27
-6.265
-6.265
-6.255
-6.255
-6.255
-6.26
-6.255
-6.27
-6.27
-6.3
-6.31
-6.355
-6.395
-6.425
-6.41
-6.375
-6.34
-6.315
-6.34
-6.36
-6.365
-6.415
-6.44
-6.455
-6.45
-6.435
-6.42
-6.415
-6.41
-6.4
-6.365
-6.36
-6.37
-6.365
-6.34
-6.325
-6.28
-6.235
-6.22
-6.205
-6.195
-6.185
-6.185
-6.185
-6.2
-6.195
-6.165
-6.135
-6.115
-6.105
-6.115
-6.095
-6.1
-6.095
-6.09
-6.09
-6.085
-6.095
-6.105
-6.125
-6.13
-6.12
-6.105
-6.07
-6.075
-6.09
-6.11
-6.13
-6.13
-6.12
-6.11
-6.11
-6.105
-6.115
-6.13
-6.125
-6.115
-6.135
-6.115
-6.125
-6.14
-6.145
-6.14
-6.12
-6.095
-6.09
-6.085
-6.09
-6.105
-6.13
-6.125
-6.11
-6.1
-6.1
-6.115
-6.115
-6.125
-6.15
-6.17
-6.185
-6.185
-6.16
-6.15
-6.145
-6.13
-6.175
-6.185
-6.19
-6.185
-6.16
-6.135
-6.11
-6.09
-6.085
-6.1
-6.125
-6.135
-6.15
-6.145
-6.16
-6.18
-6.155
-6.135
-6.13
-6.105
-6.105
-6.085
-6.075
-6.065
-6.06
-6.025
-5.99
-5.965
-5.935
-5.95
-5.96
-5.965
-5.96
-5.95
-5.925
-5.9
-5.895
-5.905
-5.91
-5.945
-5.935
-5.96
-5.97
-5.98
-5.98
-5.995
-6.015
-6.03
-6.03
-5.975
-5.925
-5.895
-5.88
-5.87
-5.9
-5.97
-6.05
-6.1
-6.135
-6.13
-6.13
-6.125
-6.12
-6.15
-6.175
-6.2
-6.17
-6.175
-6.18
-6.185
-6.205
-6.205
-6.205
-6.215
-6.215
-6.185
-6.165
-6.145
-6.15
-6.175
-6.18
-6.195
-6.215
-6.21
-6.23
-6.25
-6.225
-6.205
-6.17
-6.17
-6.195
-6.24
-6.27
-6.295
-6.265
-6.225
-6.125
-5.995
-5.855
-5.76
-5.705
-5.7
-5.7
-5.62
-5.445
-5.22
-4.975
-4.78
-4.74
-4.86
-5.195
-5.64
-6.1
-6.47
-6.75
-6.905
-7.01
-7.065
-7.145
-7.22
-7.3
-7.37
-7.405
-7.4
-7.36
-7.34
-7.33
-7.34
-7.35
-7.345
-7.305
-7.22
-7.105
-6.94
-6.76
-6.56
-6.385
-6.265
-6.195
-6.17
-6.17
-6.185
-6.21
-6.195
-6.18
-6.165
-6.155
-6.15
-6.15
-6.15
-6.135
-6.11
-6.085
-6.085
-6.075
-6.095
-6.13
-6.17
-6.19
-6.195
-6.205
-6.205
-6.205
-6.2
-6.16
-6.17
-6.19
-6.195
-6.225
-6.245
-6.255
-6.275
-6.31
-6.345
-6.33
-6.33
-6.33
-6.31
-6.32
-6.335
-6.355
-6.375
-6.37
-6.375
-6.355
-6.33
-6.335
-6.32
-6.33
-6.34
-6.325
-6.31
-6.265
-6.295
-6.28
-6.285
-6.265
-6.27
-6.22
-6.17
-6.125
-6.07
-6.085
-6.105
-6.095
-6.125
-6.125
-6.09
-6.075
-6.04
-6.03
-6.02
-6.01
-6.035
-6.06
-6.09
-6.125
-6.12
-6.12
-6.105
-6.065
-6.045
-6.045
-6.03
-6.03
-6.04
-6.06
-6.065
-6.07
-6.08
-6.085
-6.055
-6.035
-6.02
-6.005
-6.04
-6.075
-6.105
-6.115
-6.115
-6.115
-6.1
-6.085
-6.08
-6.065
-6.08
-6.06
-6.055
-6.045
-6.035
-6.055
-6.105
-6.17
-6.2
-6.205
-6.185
-6.145
-6.08
-6.05
-6.06
-6.05
-6.1
-6.145
-6.155
-6.16
-6.16
-6.135
-6.115
-6.11
-6.09
-6.075
-6.07
-6.08
-6.065
-6.055
-6.045
-6.055
-6.08
-6.095
-6.11
-6.105
-6.09
-6.09
-6.075
-6.055
-6.025
-6.005
-6.0
-5.985
-5.98
-5.955
-5.94
-5.92
-5.89
-5.855
-5.81
-5.79
-5.785
-5.79
-5.825
-5.88
-5.94
-5.98
-5.99
-6.0
-5.99
-5.975
-5.95
-5.92
-5.92
-5.935
-5.965
-6.005
-6.005
-6.0
-5.995
-6.015
-6.015
-6.04
-6.055
-6.065
-6.11
-6.14
-6.165
-6.195
-6.215
-6.195
-6.16
-6.135
-6.16
-6.185
-6.215
-6.23
-6.225
-6.195
-6.175
-6.155
-6.155
-6.185
-6.22
-6.25
-6.255
-6.235
-6.215
-6.19
-6.165
-6.155
-6.175
-6.205
-6.285
-6.325
-6.375
-6.365
-6.29
-6.16
-6.025
-5.895
-5.765
-5.71
-5.72
-5.74
-5.715
-5.59
-5.37
-5.095
-4.855
-4.78
-4.915
-5.31
-5.83
-6.35
-6.785
-7.07
-7.205
-7.295
-7.335
-7.37
-7.42
-7.435
-7.455
-7.46
-7.445
-7.44
-7.455
-7.445
-7.425
-7.395
-7.335
-7.255
-7.155
-7.02
-6.86
-6.675
-6.51
-6.37
-6.265
-6.215
-6.195
-6.21
-6.24
-6.235
-6.225
-6.205
-6.185
-6.15
-6.1
-6.115
-6.13
-6.155
-6.16
-6.16
-6.135
-6.11
-6.085
-6.09
-6.095
-6.135
-6.16
-6.17
-6.205
-6.245
-6.265
-6.285
-6.29
-6.295
-6.29
-6.26
-6.26
-6.265
-6.265
-6.29
-6.325
-6.355
-6.39
-6.385
-6.38
-6.34
-6.305
-6.275
-6.27
-6.29
-6.315
-6.35
-6.4
-6.405
-6.405
-6.395
-6.375
-6.335
-6.32
-6.3
-6.275
-6.285
-6.27
-6.29
-6.32
-6.305
-6.275
-6.235
-6.2
-6.16
-6.135
-6.11
-6.085
-6.075
-6.075
-6.07
-6.075
-6.115
-6.135
-6.145
-6.135
-6.11
-6.09
-6.075
-6.06
-6.06
-6.06
-6.06
-6.09
-6.1
-6.1
-6.095
-6.095
-6.1
-6.1
-6.07
-6.05
-6.04
-6.05
-6.09
-6.1
-6.125
-6.16
-6.165
-6.18
-6.185
-6.17
-6.14
-6.11
-6.095
-6.1
-6.12
-6.125
-6.17
-6.195
-6.2
-6.19
-6.155
-6.12
-6.1
-6.08
-6.085
-6.08
-6.105
-6.135
-6.155
-6.2
-6.205
-6.2
-6.15
-6.095
-6.075
-6.065
-6.095
-6.125
-6.17
-6.18
-6.2
-6.205
-6.16
-6.16
-6.15
-6.135
-6.14
-6.14
-6.15
-6.125
-6.115
-6.1
-6.125
-6.135
-6.155
-6.135
-6.095
-6.045
-6.005
-5.99
-6.0
-6.015
-6.05
-6.055
-6.02
-6.0
-5.965
-5.925
-5.895
-5.885
-5.88
-5.87
-5.9
-5.92
-5.955
-5.98
-6.035
-6.075
-6.085
-6.05
-6.02
-5.995
-6.0
-5.995
-6.005
-6.025
-6.045
-6.07
-6.095
-6.11
-6.09
-6.065
-6.08
-6.105
-6.145
-6.2
-6.275
-6.3
-6.32
-6.3
-6.28
-6.255
-6.23
-6.235
-6.22
-6.23
-6.23
-6.25
-6.3
-6.32
-6.345
-6.355
-6.34
-6.325
-6.32
-6.31
-6.305
-6.3
-6.29
-6.27
-6.24
-6.255
-6.27
-6.32
-6.405
-6.46
-6.47
-6.395
-6.285
-6.15
-5.995
-5.835
-5.755
-5.705
-5.73
-5.715
-5.645
-5.495
-5.26
-5.005
-4.805
-4.755
-4.895
-5.28
-5.79
-6.37
-6.845
-7.17
-7.335
-7.42
-7.46
-7.505
-7.56
-7.6
-7.625
-7.645
-7.625
-7.595
-7.575
-7.53
-7.49
-7.46
-7.45
-7.415
-7.355
-7.25
-7.095
-6.915
-6.74
-6.565
-6.465
-6.39
-6.39
-6.38
-6.4
-6.4
-6.375
-6.35
-6.335
-6.315
-6.3
-6.295
-6.28
-6.28
-6.28
-6.32
-6.34
-6.325
-6.305
-6.32
-6.33
-6.34
-6.38
-6.37
-6.38
-6.415
-6.44
-6.455
-6.465
-6.44
-6.435
-6.415
-6.425
-6.43
-6.44
-6.46
-6.495
-6.545
-6.54
-6.58
-6.58
-6.58
-6.54
-6.51
-6.49
-6.485
-6.515
-6.52
-6.53
-6.55
-6.55
-6.57
-6.585
-6.59
-6.555
-6.515
-6.485
-6.435
-6.41
-6.4
-6.415
-6.405
-6.425
-6.425
-6.405
-6.39
-6.36
-6.325
-6.3
-6.28
-6.285
-6.26
-6.27
-6.265
-6.27
-6.265
-6.27
-6.26
-6.26
-6.26
-6.25
-6.225
-6.215
-6.22
-6.235
-6.25
-6.265
-6.265
-6.255
-6.275
-6.28
-6.295
-6.3
-6.305
-6.28
-6.27
-6.265
-6.285
-6.29
-6.31
-6.315
-6.335
-6.32
-6.31
-6.29
-6.275
-6.28
-6.26
-6.265
-6.285
-6.28
-6.3
-6.315
-6.315
-6.315
-6.31
-6.31
-6.295
-6.3
-6.305
-6.305
-6.31
-6.33
-6.31
-6.29
-6.295
-6.295
-6.295
-6.275
-6.265
-6.275
-6.295
-6.31
-6.335
-6.37
-6.35
-6.34
-6.32
-6.285
-6.26
-6.26
-6.255
-6.25
-6.265
-6.24
-6.235
-6.255
-6.285
-6.285
-6.255
-6.23
-6.205
-6.18
-6.155
-6.14
-6.115
-6.095
-6.075
-6.055
-6.05
-6.045
-6.05
-6.05
-6.07
-6.09
-6.105
-6.125
-6.155
-6.195
-6.22
-6.22
-6.21
-6.17
-6.14
-6.09
-6.08
-6.09
-6.09
-6.11
-6.15
-6.19
-6.23
-6.275
-6.31
-6.325
-6.355
-6.365
-6.36
-6.36
-6.325
-6.33
-6.34
-6.38
-6.395
-6.395
-6.4
-6.41
-6.395
-6.38
-6.385
-6.39
-6.37
-6.345
-6.325
-6.33
-6.34
-6.39
-6.425
-6.415
-6.4
-6.385
-6.375
-6.365
-6.37
-6.405
-6.43
-6.435
-6.4
-6.32
-6.18
-6.045
-5.94
-5.845
-5.835
-5.83
-5.785
-5.67
-5.475
-5.22
-4.995
-4.865
-4.895
-5.105
-5.485
-5.955
-6.405
-6.765
-6.985
-7.105
-7.17
-7.22
-7.34
-7.42
-7.49
-7.57
-7.6
-7.605
-7.585
-7.57
-7.53
-7.515
-7.5
-7.48
-7.43
-7.355
-7.25
-7.12
-6.925
-6.74
-6.595
-6.47
-6.38
-6.365
-6.365
-6.355
-6.36
-6.34
-6.34
-6.345
-6.335
-6.34
-6.295
-6.275
-6.24
-6.245
-6.26
-6.28
-6.295
-6.34
-6.36
-6.345
-6.345
-6.33
-6.325
-6.34
-6.34
-6.36
-6.375
-6.38
-6.39
-6.395
-6.41
-6.43
-6.455
-6.505
-6.48
-6.475
-6.46
-6.48
-6.5
-6.51
-6.505
-6.495
-6.485
-6.51
-6.525
-6.555
-6.555
-6.535
-6.49
-6.45
-6.44
-6.43
-6.455
-6.505
-6.505
-6.5
-6.485
-6.44
-6.395
-6.345
-6.32
-6.295
-6.29
-6.285
-6.265
-6.255
-6.255
-6.26
-6.27
-6.26
-6.255
-6.23
-6.21
-6.21
-6.22
-6.21
-6.21
-6.205
-6.195
-6.215
-6.19
-6.18
-6.18
-6.17
-6.15
-6.15
-6.175
-6.17
-6.18
-6.2
-6.2
-6.235
-6.22
-6.225
-6.225
-6.215
-6.185
-6.205
-6.2
-6.22
-6.225
-6.22
-6.23
-6.23
-6.25
-6.225
-6.22
-6.225
-6.19
-6.215
-6.22
-6.245
-6.28
-6.265
-6.28
-6.28
-6.265
-6.265
-6.255
-6.24
-6.23
-6.235
-6.225
-6.225
-6.265
-6.265
-6.28
-6.29
-6.275
-6.265
-6.215
-6.235
-6.25
-6.28
-6.295
-6.28
-6.28
-6.255
-6.24
-6.24
-6.23
-6.24
-6.23
-6.215
-6.19
-6.16
-6.13
-6.115
-6.11
-6.105
-6.12
-6.11
-6.12
-6.105
-6.1
-6.075
-6.05
-6.045
-6.035
-6.02
-6.025
-6.015
-6.015
-6.05
-6.075
-6.13
-6.165
-6.175
-6.17
-6.16
-6.14
-6.15
-6.16
-6.175
-6.175
-6.18
-6.195
-6.22
-6.25
-6.28
-6.27
-6.28
-6.285
-6.305
-6.33
-6.345
-6.38
-6.375
-6.365
-6.34
-6.345
-6.355
-6.38
-6.405
-6.415
-6.41
-6.43
-6.415
-6.41
-6.385
-6.38
-6.38
-6.38
-6.38
-6.35
-6.335
-6.35
-6.38
-6.445
-6.5
-6.48
-6.485
-6.47
-6.455
-6.48
-6.505
-6.505
-6.525
-6.485
-6.395
-6.255
-6.115
-6.0
-5.95
-5.97
-5.995
-5.975
-5.885
-5.7
-5.455
-5.2
-5.015
-4.96
-5.085
-5.41
-5.845
-6.315
-6.75
-7.07
-7.285
-7.375
-7.45
-7.515
-7.595
-7.7
-7.79
-7.84
-7.88
-7.88
-7.86
-7.855
-7.825
-7.79
-7.745
-7.715
-7.65
-7.52
-7.355
-7.145
-6.975
-6.83
-6.725
-6.665
-6.64
-6.645
-6.67
-6.66
-6.635
-6.595
-6.575
-6.555
-6.565
-6.555
-6.535
-6.505
-6.485
-6.47
-6.46
-6.5
-6.505
-6.535
-6.56
-6.565
-6.58
-6.585
-6.57
-6.56
-6.535
-6.51
-6.505
-6.53
-6.57
-6.605
-6.645
-6.69
-6.725
-6.74
-6.745
-6.74
-6.72
-6.695
-6.69
-6.68
-6.685
-6.7
-6.72
-6.71
-6.74
-6.755
-6.75
-6.755
-6.76
-6.74
-6.715
-6.745
-6.72
-6.73
-6.735
-6.72
-6.685
-6.66
-6.625
-6.585
-6.55
-6.51
-6.485
-6.475
-6.48
-6.485
-6.485
-6.48
-6.48
-6.46
-6.425
-6.41
-6.42
-6.4
-6.4
-6.39
-6.4
-6.415
-6.41
-6.415
-6.42
-6.42
-6.42
-6.415
-6.41
-6.4
-6.4
-6.41
-6.415
-6.385
-6.395
-6.4
-6.42
-6.415
-6.43
-6.41
-6.4
-6.395
-6.39
-6.39
-6.41
-6.435
-6.445
-6.465
-6.46
-6.455
-6.45
-6.43
-6.41
-6.41
-6.41
-6.425
-6.44
-6.46
-6.475
-6.49
-6.495
-6.495
-6.48
-6.455
-6.42
-6.39
-6.38
-6.405
-6.425
-6.45
-6.48
-6.48
-6.475
-6.465
-6.455
-6.47
-6.445
-6.44
-6.44
-6.425
-6.395
-6.4
-6.405
-6.395
-6.41
-6.41
-6.38
-6.355
-6.325
-6.3
-6.3
-6.3
-6.275
-6.28
-6.255
-6.245
-6.215
-6.2
-6.16
-6.14
-6.11
-6.085
-6.085
-6.115
-6.155
-6.185
-6.24
-6.27
-6.285
-6.305
-6.305
-6.3
-6.265
-6.24
-6.225
-6.2
-6.215
-6.23
-6.265
-6.305
-6.345
-6.365
-6.375
-6.37
-6.385
-6.405
-6.425
-6.455
-6.475
-6.49
-6.475
-6.475
-6.485
-6.48
-6.495
-6.49
-6.495
-6.47
-6.475
-6.485
-6.48
-6.5
-6.5
-6.5
-6.495
-6.5
-6.49
-6.475
-6.465
-6.455
-6.475
-6.485
-6.495
-6.52
-6.525
-6.535
-6.5
-6.405
-6.255
-6.105
-5.94
-5.785
-5.725
-5.71
-5.735
-5.765
-5.74
-5.61
-5.435
-5.235
-5.09
-5.09
-5.295
-5.71
-6.275
-6.83
-7.275
-7.565
-7.685
-7.725
-7.74
-7.775
-7.815
-7.865
-7.9
-7.9
-7.9
-7.9
-7.855
-7.81
-7.765
-7.74
-7.705
-7.63
-7.52
-7.35
-7.2
-7.005
-6.865
-6.765
-6.68
-6.615
-6.615
-6.58
-6.575
-6.555
-6.55
-6.525
-6.5
-6.485
-6.465
-6.485
-6.495
-6.515
-6.525
-6.525
-6.525
-6.53
-6.54
-6.525
-6.535
-6.525
-6.545
-6.55
-6.56
-6.58
-6.6
-6.62
-6.61
-6.63
-6.645
-6.64
-6.645
-6.65
-6.67
-6.665
-6.67
-6.68
-6.7
-6.73
-6.755
-6.785
-6.78
-6.76
-6.745
-6.735
-6.755
-6.73
-6.745
-6.74
-6.745
-6.745
-6.725
-6.71
-6.685
-6.68
-6.685
-6.665
-6.66
-6.63
-6.615
-6.6
-6.57
-6.54
-6.53
-6.535
-6.515
-6.515
-6.51
-6.48
-6.465
-6.455
-6.435
-6.435
-6.44
-6.435
-6.45
-6.45
-6.445
-6.44
-6.45
-6.44
-6.445
-6.44
-6.44
-6.42
-6.4
-6.4
-6.395
-6.41
-6.41
-6.415
-6.435
-6.46
-6.48
-6.48
-6.48
-6.47
-6.455
-6.465
-6.475
-6.485
-6.48
-6.455
-6.445
-6.425
-6.4
-6.395
-6.4
-6.43
-6.435
-6.45
-6.465
-6.45
-6.43
-6.4
-6.425
-6.445
-6.48
-6.53
-6.54
-6.545
-6.525
-6.51
-6.495
-6.49
-6.465
-6.47
-6.455
-6.465
-6.465
-6.49
-6.49
-6.48
-6.49
-6.49
-6.47
-6.465
-6.44
-6.43
-6.425
-6.41
-6.385
-6.365
-6.38
-6.395
-6.41
-6.42
-6.42
-6.39
-6.34
-6.32
-6.27
-6.23
-6.24
-6.23
-6.225
-6.215
-6.205
-6.2
-6.205
-6.23
-6.255
-6.285
-6.295
-6.325
-6.335
-6.31
-6.305
-6.29
-6.275
-6.255
-6.235
-6.235
-6.24
-6.28
-6.325
-6.355
-6.375
-6.39
-6.405
-6.43
-6.465
-6.485
-6.5
-6.52
-6.515
-6.49
-6.46
-6.44
-6.46
-6.5
-6.52
-6.55
-6.56
-6.535
-6.52
-6.505
-6.505
-6.505
-6.53
-6.505
-6.515
-6.505
-6.505
-6.49
-6.495
-6.495
-6.5
-6.515
-6.51
-6.515
-6.535
-6.52
-6.48
-6.395
-6.265
-6.115
-5.97
-5.88
-5.87
-5.88
-5.86
-5.76
-5.575
-5.31
-5.09
-4.97
-5.04
-5.285
-5.725
-6.225
-6.695
-7.07
-7.265
-7.385
-7.43
-7.475
-7.525
-7.58
-7.635
-7.675
-7.695
-7.7
-7.7
-7.685
-7.66
-7.65
-7.61
-7.545
-7.41
-7.23
-7.055
-6.895
-6.73
-6.63
-6.57
-6.52
-6.495
-6.51
-6.505
-6.52
-6.51
-6.49
-6.485
-6.48
-6.475
-6.47
-6.455
-6.44
-6.42
-6.4
-6.4
-6.4
-6.42
-6.445
-6.455
-6.48
-6.51
-6.525
-6.535
-6.515
-6.515
-6.505
-6.505
-6.515
-6.525
-6.545
-6.545
-6.57
-6.59
-6.625
-6.66
-6.675
-6.655
-6.645
-6.63
-6.61
-6.585
-6.61
-6.625
-6.64
-6.65
-6.67
-6.69
-6.685
-6.655
-6.64
-6.63
-6.625
-6.635
-6.6
-6.56
-6.505
-6.485
-6.48
-6.49
-6.49
-6.495
-6.465
-6.435
-6.395
-6.38
-6.345
-6.325
-6.315
-6.315
-6.335
-6.34
-6.33
-6.305
-6.29
-6.275
-6.27
-6.26
-6.27
-6.28
-6.29
-6.285
-6.31
-6.29
-6.295
-6.29
-6.285
-6.275
-6.285
-6.275
-6.27
-6.265
-6.26
-6.27
-6.27
-6.265
-6.265
-6.295
-6.3
-6.3
-6.31
-6.3
-6.305
-6.29
-6.275
-6.305
-6.33
-6.34
-6.36
-6.345
-6.325
-6.305
-6.27
-6.265
-6.27
-6.31
-6.325
-6.335
-6.325
-6.315
-6.32
-6.305
-6.285
-6.27
-6.255
-6.25
-6.25
-6.285
-6.305
-6.325
-6.33
-6.33
-6.315
-6.3
-6.27
-6.245
-6.23
-6.22
-6.235
-6.22
-6.21
-6.225
-6.195
-6.175
-6.165
-6.135
-6.105
-6.095
-6.055
-6.045
-6.025
-6.015
-6.005
-6.0
-6.005
-6.01
-6.02
-6.045
-6.06
-6.08
-6.105
-6.125
-6.145
-6.165
-6.145
-6.11
-6.085
-6.035
-6.015
-6.02
-6.05
-6.11
-6.16
-6.21
-6.205
-6.21
-6.24
-6.25
-6.26
-6.29
-6.31
-6.325
-6.32
-6.32
-6.3
-6.295
-6.31
-6.305
-6.31
-6.335
-6.335
-6.375
-6.37
-6.4
-6.385
-6.355
-6.32
-6.3
-6.315
-6.34
-6.335
-6.32
-6.305
-6.29
-6.315
-6.335
-6.37
-6.39
-6.375
-6.315
-6.21
-6.055
-5.9
-5.79
-5.72
-5.715
-5.74
-5.705
-5.575
-5.36
-5.105
-4.87
-4.775
-4.855
-5.145
-5.62
-6.13
-6.6
-6.94
-7.14
-7.235
-7.28
-7.31
-7.38
-7.445
-7.515
-7.595
-7.625
-7.63
-7.63
-7.62
-7.6
-7.565
-7.515
-7.465
-7.37
-7.265
-7.125
-6.965
-6.79
-6.64
-6.52
-6.44
-6.38
-6.37
-6.38
-6.345
-6.33
-6.31
-6.29
-6.28
-6.27
-6.285
-6.3
-6.295
-6.295
-6.285
-6.285
-6.28
-6.295
-6.305
-6.295
-6.3
-6.32
-6.34
-6.345
-6.355
-6.35
-6.34
-6.35
-6.36
-6.365
-6.385
-6.41
-6.415
-6.435
-6.445
-6.45
-6.465
-6.485
-6.49
-6.485
-6.48
-6.485
-6.5
-6.495
-6.5
-6.51
-6.51
-6.51
-6.495
-6.51
-6.515
-6.505
-6.505
-6.495
-6.49
-6.485
-6.455
-6.43
-6.445
-6.415
-6.38
-6.355
-6.33
-6.31
-6.305
-6.29
-6.275
-6.25
-6.245
-6.24
-6.245
-6.235
-6.23
-6.225
-6.215
-6.19
-6.18
-6.175
-6.145
-6.145
-6.155
-6.165
-6.17
-6.185
-6.195
-6.21
-6.205
-6.2
-6.21
-6.2
-6.19
-6.2
-6.19
-6.2
-6.215
-6.21
-6.22
-6.235
-6.24
-6.24
-6.22
-6.225
-6.22
-6.215
-6.22
-6.225
-6.265
-6.27
-6.275
-6.255
-6.25
-6.255
-6.255
-6.255
-6.265
-6.26
-6.265
-6.28
-6.27
-6.275
-6.26
-6.275
-6.265
-6.285
-6.28
-6.265
-6.28
-6.285
-6.285
-6.275
-6.275
-6.29
-6.275
-6.265
-6.275
-6.275
-6.27
-6.28
-6.265
-6.26
-6.265
-6.26
-6.26
-6.27
-6.255
-6.26
-6.25
-6.255
-6.235
-6.25
-6.215
-6.185
-6.165
-6.155
-6.165
-6.185
-6.185
-6.19
-6.185
-6.16
-6.125
-6.08
-6.04
-6.045
-6.03
-6.02
-6.005
-6.015
-6.005
-6.005
-6.01
-6.035
-6.065
-6.085
-6.11
-6.12
-6.105
-6.095
-6.065
-6.06
-6.05
-6.05
-6.055
-6.1
-6.115
-6.145
-6.165
-6.185
-6.215
-6.24
-6.265
-6.275
-6.3
-6.285
-6.28
-6.28
-6.27
-6.285
-6.285
-6.295
-6.31
-6.305
-6.325
-6.335
-6.33
-6.33
-6.31
-6.31
-6.29
-6.285
-6.3
-6.3
-6.335
-6.33
-6.325
-6.325
-6.315
-6.31
-6.29
-6.32
-6.315
-6.335
-6.315
-6.28
-6.195
-6.05
-5.855
-5.675
-5.54
-5.495
-5.505
-5.55
-5.55
-5.455
-5.27
-5.02
-4.865
-4.815
-4.96
-5.32
-5.82
-6.35
-6.8
-7.12
-7.325
-7.42
-7.485
-7.52
-7.56
-7.565
-7.58
-7.575
-7.57
-7.56
-7.555
-7.54
-7.495
-7.455
-7.375
-7.25
-7.08
-6.905
-6.725
-6.585
-6.475
-6.39
-6.36
-6.355
-6.35
-6.38
-6.38
-6.385
-6.38
-6.355
-6.325
-6.29
-6.255
-6.255
-6.255
-6.245
-6.25
-6.255
-6.26
-6.285
-6.31
-6.325
-6.35
-6.345
-6.34
-6.35
-6.35
-6.36
-6.385
-6.4
-6.4
-6.4
-6.41
-6.41
-6.42
-6.445
-6.46
-6.48
-6.48
-6.48
-6.49
-6.47
-6.47
-6.475
-6.48
-6.49
-6.505
-6.535
-6.53
-6.53
-6.525
-6.52
-6.51
-6.52
-6.5
-6.515
-6.485
-6.45
-6.435
-6.42
-6.395
-6.37
-6.32
-6.285
-6.285
-6.27
-6.285
-6.26
-6.26
-6.24
-6.225
-6.22
-6.205
-6.195
-6.18
-6.16
-6.155
-6.145
-6.16
-6.175
-6.17
-6.185
-6.175
-6.18
-6.18
-6.175
-6.175
-6.17
-6.175
-6.17
-6.165
-6.15
-6.175
-6.185
-6.2
-6.205
-6.195
-6.175
-6.16
-6.15
-6.145
-6.165
-6.175
-6.175
-6.195
-6.205
-6.21
-6.21
-6.215
-6.195
-6.19
-6.185
-6.185
-6.18
-6.195
-6.19
-6.21
-6.215
-6.235
-6.25
-6.23
-6.22
-6.21
-6.2
-6.185
-6.18
-6.18
-6.19
-6.21
-6.205
-6.235
-6.215
-6.22
-6.195
-6.18
-6.18
-6.185
-6.175
-6.18
-6.175
-6.17
-6.175
-6.18
-6.165
-6.155
-6.13
-6.11
-6.095
-6.085
-6.095
-6.09
-6.065
-6.04
-6.005
-6.0
-5.985
-5.96
-5.945
-5.94
-5.92
-5.92
-5.92
-5.93
-5.955
-5.985
-6.03
-6.065
-6.09
-6.085
-6.085
-6.045
-6.01
-5.975
-5.96
-5.96
-5.975
-6.035
-6.075
-6.11
-6.14
-6.15
-6.17
-6.185
-6.195
-6.19
-6.195
-6.195
-6.21
-6.22
-6.25
-6.255
-6.265
-6.265
-6.25
-6.25
-6.225
-6.245
-6.235
-6.235
-6.25
-6.265
-6.26
-6.225
-6.235
-6.23
-6.245
-6.26
-6.27
-6.27
-6.265
-6.285
-6.285
-6.32
-6.345
-6.325
-6.28
-6.18
-6.04
-5.88
-5.74
-5.63
-5.6
-5.635
-5.66
-5.635
-5.53
-5.315
-5.055
-4.81
-4.695
-4.715
-4.955
-5.345
-5.84
-6.32
-6.665
-6.895
-7.015
-7.07
-7.125
-7.18
-7.245
-7.32
-7.375
-7.425
-7.455
-7.47
-7.49
-7.455
-7.45
-7.435
-7.405
-7.385
-7.33
-7.255
-7.115
-6.96
-6.8
-6.635
-6.485
-6.39
-6.32
-6.29
-6.28
-6.275
-6.265
-6.25
-6.25
-6.24
-6.21
-6.2
-6.18
-6.17
-6.17
-6.17
-6.2
-6.21
-6.22
-6.23
-6.22
-6.22
-6.185
-6.185
-6.2
-6.23
-6.245
-6.275
-6.285
-6.315
-6.315
-6.31
-6.31
-6.29
-6.285
-6.305
-6.34
-6.375
-6.405
-6.42
-6.43
-6.42
-6.42
-6.405
-6.41
-6.41
-6.41
-6.43
-6.44
-6.425
-6.435
-6.42
-6.42
-6.395
-6.38
-6.37
-6.34
-6.335
-6.31
-6.285
-6.265
-6.235
-6.215
-6.215
-6.195
-6.175
-6.155
-6.14
-6.14
-6.12
-6.1
-6.095
-6.095
-6.09
-6.08
-6.06
-6.055
-6.05
-6.045
-6.045
-6.03
-6.045
-6.035
-6.04
-6.045
-6.06
-6.065
-6.07
-6.085
-6.095
-6.08
-6.065
-6.06
-6.025
-6.03
-6.03
-6.015
-6.03
-6.065
-6.1
-6.115
-6.11
-6.1
-6.09
-6.06
-6.045
-6.025
-6.035
-6.03
-6.05
-6.075
-6.09
-6.1
-6.095
-6.115
-6.065
-6.05
-6.06
-6.08
-6.08
-6.09
-6.1
-6.105
-6.095
-6.12
-6.1
-6.09
-6.075
-6.05
-6.06
-6.06
-6.06
-6.075
-6.095
-6.105
-6.1
-6.105
-6.09
-6.07
-6.07
-6.07
-6.035
-6.05
-6.06
-6.045
-6.055
-6.03
-6.02
-6.03
-6.02
-5.995
-5.98
-5.95
-5.915
-5.905
-5.9
-5.91
-5.9
-5.89
-5.88
-5.86
-5.83
-5.785
-5.78
-5.755
-5.75
-5.78
-5.795
-5.815
-5.84
-5.87
-5.91
-5.935
-5.93
-5.935
-5.915
-5.875
-5.84
-5.825
-5.82
-5.835
-5.84
-5.905
-5.93
-5.975
-5.99
-5.99
-5.98
-5.99
-6.0
-6.015
-6.035
-6.04
-6.065
-6.075
-6.07
-6.085
-6.105
-6.115
-6.11
-6.105
-6.095
-6.09
-6.075
-6.065
-6.08
-6.085
-6.085
-6.085
-6.08
-6.065
-6.055
-6.055
-6.065
-6.09
-6.13
-6.14
-6.145
-6.175
-6.175
-6.165
-6.07
-5.94
-5.75
-5.57
-5.415
-5.34
-5.37
-5.445
-5.495
-5.44
-5.28
-5.045
-4.8
-4.695
-4.835
-5.21
-5.78
-6.37
-6.85
-7.165
-7.32
-7.4
-7.405
-7.41
-7.405
-7.4
-7.395
-7.395
-7.38
-7.345
-7.295
-7.245
-7.2
-7.1
-6.99
-6.805
-6.625
-6.455
-6.325
-6.22
-6.14
-6.105
-6.085
-6.065
-6.055
-6.065
-6.045
-6.03
-6.04
-6.045
-6.04
-6.035
-6.0
-5.985
-5.955
-5.96
-5.99
-6.015
-6.06
-6.075
-6.085
-6.095
-6.08
-6.085
-6.08
-6.085
-6.13
-6.17
-6.215
-6.24
-6.26
-6.265
-6.24
-6.245
-6.225
-6.215
-6.22
-6.215
-6.24
-6.26
-6.285
-6.305
-6.325
-6.32
-6.315
-6.315
-6.295
-6.265
-6.245
-6.225
-6.215
-6.23
-6.24
-6.25
-6.255
-6.225
-6.195
-6.165
-6.125
-6.095
-6.09
-6.05
-6.045
-6.05
-6.03
-6.025
-6.02
-6.025
-6.03
-6.03
-6.02
-5.98
-5.98
-6.01
-6.045
-6.08
-6.095
-6.095
-6.075
-6.05
-6.045
-6.01
-5.99
-5.975
-5.98
-6.025
-6.055
-6.08
-6.085
-6.1
-6.125
-6.125
-6.145
-6.145
-6.135
-6.12
-6.1
-6.06
-6.045
-6.03
-6.05
-6.075
-6.105
-6.13
-6.15
-6.17
-6.16
-6.135
-6.175
-6.155
-6.155
-6.19
-6.21
-6.235
-6.24
-6.24
-6.2
-6.15
-6.135
-6.125
-6.125
-6.135
-6.16
-6.175
-6.205
-6.2
-6.205
-6.19
-6.17
-6.16
-6.15
-6.145
-6.135
-6.145
-6.155
-6.155
-6.165
-6.16
-6.155
-6.12
-6.095
-6.06
-6.025
-6.0
-5.98
-5.96
-5.955
-5.945
-5.95
-5.935
-5.94
-5.945
-5.94
-5.945
-5.965
-5.99
-6.02
-6.05
-6.09
-6.09
-6.09
-6.075
-6.055
-6.03
-5.985
-5.96
-5.945
-5.965
-6.01
-6.045
-6.08
-6.125
-6.145
-6.15
-6.175
-6.185
-6.21
-6.225
-6.23
-6.23
-6.215
-6.205
-6.235
-6.215
-6.23
-6.255
-6.26
-6.3
-6.31
-6.3
-6.29
-6.265
-6.25
-6.24
-6.245
-6.265
-6.285
-6.295
-6.3
-6.29
-6.295
-6.285
-6.275
-6.26
-6.255
-6.255
-6.3
-6.355
-6.375
-6.35
-6.265
-6.14
-5.955
-5.81
-5.71
-5.68
-5.715
-5.745
-5.725
-5.62
-5.42
-5.175
-4.945
-4.79
-4.84
-5.1
-5.525
-6.055
-6.55
-6.865
-7.08
-7.185
-7.22
-7.26
-7.315
-7.39
-7.455
-7.49
-7.5
-7.455
-7.415
-7.4
-7.415
-7.47
-7.465
-7.455
-7.395
-7.285
-7.125
-6.925
-6.73
-6.59
-6.495
-6.425
-6.375
-6.34
-6.32
-6.315
-6.33
-6.32
-6.315
-6.3
-6.26
-6.21
-6.15
-6.1
-6.105
-6.155
-6.245
-6.345
-6.38
-6.375
-6.345
-6.31
-6.285
-6.275
-6.275
-6.26
-6.26
-6.285
-6.285
-6.305
-6.34
-6.34
-6.305
-6.295
-6.31
-6.315
-6.36
-6.39
-6.4
-6.37
-6.345
-6.325
-6.35
-6.405
-6.47
-6.53
-6.565
-6.55
-6.525
-6.485
-6.485
-6.45
-6.455
-6.465
-6.47
-6.47
-6.455
-6.44
-6.42
-6.39
-6.34
-6.305
-6.26
-6.255
-6.25
-6.245
-6.245
-6.24
-6.22
-6.175
-6.14
-6.115
-6.11
-6.12
-6.155
-6.145
-6.15
-6.165
-6.205
-6.19
-6.2
-6.165
-6.135
-6.12
-6.115
-6.13
-6.135
-6.13
-6.13
-6.135
-6.155
-6.165
-6.18
-6.165
-6.16
-6.14
-6.11
-6.09
-6.085
-6.065
-6.04
-6.03
-6.02
-6.03
-6.095
-6.16
-6.205
-6.225
-6.19
-6.105
-6.055
-6.025
-6.05
-6.115
-6.175
-6.235
-6.235
-6.23
-6.185
-6.15
-6.11
-6.085
-6.08
-6.1
-6.105
-6.145
-6.14
-6.125
-6.11
-6.095
-6.12
-6.115
-6.135
-6.14
-6.14
-6.155
-6.14
-6.125
-6.115
-6.09
-6.075
-6.075
-6.065
-6.09
-6.11
-6.12
-6.16
-6.16
-6.155
-6.15
-6.12
-6.095
-6.06
-6.045
-6.025
-6.025
-5.995
-5.95
-5.9
-5.88
-5.875
-5.905
-5.925
-5.91
-5.88
-5.875
-5.88
-5.895
-5.895
-5.895
-5.915
-5.94
-5.975
-6.005
-5.995
-6.005
-5.995
-5.975
-5.945
-5.925
-5.925
-5.935
-5.96
-5.995
-6.015
-6.04
-6.04
-6.055
-6.07
-6.085
-6.1
-6.1
-6.095
-6.095
-6.105
-6.1
-6.115
-6.125
-6.145
-6.12
-6.15
-6.175
-6.215
-6.265
-6.255
-6.225
-6.18
-6.145
-6.135
-6.155
-6.2
-6.225
-6.255
-6.24
-6.195
-6.16
-6.145
-6.135
-6.16
-6.195
-6.235
-6.27
-6.29
-6.27
-6.22
-6.12
-5.98
-5.825
-5.69
-5.635
-5.64
-5.63
-5.55
-5.395
-5.145
-4.9
-4.76
-4.81
-5.055
-5.465
-5.94
-6.35
-6.67
-6.825
-6.92
-6.97
-7.035
-7.11
-7.2
-7.27
-7.3
-7.305
-7.275
-7.255
-7.23
-7.215
-7.185
-7.155
-7.07
-6.955
-6.825
-6.67
-6.51
-6.385
-6.295
-6.22
-6.185
-6.13
-6.105
-6.08
-6.055
-6.08
-6.105
-6.125
-6.09
-6.045
-5.985
-5.945
-5.97
-6.06
-6.14
-6.19
-6.21
-6.215
-6.185
-6.165
-6.145
-6.135
-6.135
-6.16
-6.195
-6.205
-6.21
-6.225
-6.245
-6.24
-6.24
-6.225
-6.225
-6.185
-6.185
-6.23
-6.275
-6.32
-6.36
-6.36
-6.33
-6.285
-6.26
-6.265
-6.265
-6.265
-6.29
-6.3
-6.325
-6.305
-6.275
-6.26
-6.26
-6.255
-6.255
-6.25
-6.245
-6.25
-6.26
-6.225
-6.185
-6.135
-6.06
-6.035
-6.005
-6.02
-6.035
-6.095
-6.125
-6.11
-6.08
-6.035
-6.015
-5.995
-5.99
-6.005
-5.985
-5.99
-5.985
-6.0
-5.995
-6.0
-6.02
-6.0
-6.02
-6.04
-6.025
-5.98
-5.96
-5.96
-5.98
-6.02
-6.03
-6.015
-5.995
-5.975
-5.99
-6.0
-6.01
-6.025
-6.01
-6.01
-6.005
-6.0
-5.995
-5.995
-5.99
-5.985
-6.01
-6.055
-6.105
-6.125
-6.125
-6.125
-6.12
-6.105
-6.085
-6.06
-6.065
-6.05
-6.06
-6.045
-6.045
-6.04
-6.015
-6.005
-6.015
-6.01
-6.025
-6.04
-6.02
-5.98
-5.975
-5.985
-6.02
-6.03
-6.045
-6.065
-6.095
-6.11
-6.125
-6.095
-6.08
-6.035
-6.025
-5.99
-5.97
-5.95
-5.935
-5.905
-5.895
-5.86
-5.835
-5.805
-5.82
-5.815
-5.825
-5.81
-5.755
-5.705
-5.7
-5.71
-5.76
-5.82
-5.885
-5.935
-5.95
-5.95
-5.94
-5.925
-5.89
-5.885
-5.875
-5.875
-5.88
-5.875
-5.9
-5.94
-5.97
-5.99
-5.985
-5.985
-6.0
-6.05
-6.095
-6.13
-6.155
-6.13
-6.135
-6.13
-6.125
-6.11
-6.105
-6.115
-6.115
-6.13
-6.16
-6.165
-6.15
-6.105
-6.08
-6.09
-6.155
-6.19
-6.215
-6.2
-6.2
-6.16
-6.145
-6.155
-6.19
-6.22
-6.255
-6.275
-6.28
-6.245
-6.17
-6.065
-5.925
-5.81
-5.715
-5.705
-5.775
-5.81
-5.78
-5.615
-5.365
-5.05
-4.775
-4.635
-4.715
-5.03
-5.485
-5.965
-6.385
-6.685
-6.84
-6.89
-6.925
-6.96
-7.05
-7.175
-7.31
-7.4
-7.445
-7.44
-7.41
-7.365
-7.33
-7.285
-7.24
-7.19
-7.115
-7.03
-6.88
-6.715
-6.545
-6.425
-6.375
-6.385
-6.38
-6.35
-6.3
-6.235
-6.185
-6.145
-6.12
-6.115
-6.13
-6.13
-6.165
-6.185
-6.18
-6.18
-6.17
-6.175
-6.19
-6.205
-6.22
-6.205
-6.185
-6.2
-6.225
-6.255
-6.295
-6.305
-6.32
-6.33
-6.3
-6.27
-6.265
-6.255
-6.255
-6.26
-6.295
-6.34
-6.39
-6.375
-6.365
-6.33
-6.32
-6.32
-6.355
-6.395
-6.44
-6.47
-6.475
-6.5
-6.465
-6.4
-6.37
-6.335
-6.345
-6.35
-6.345
-6.295
-6.27
-6.255
-6.255
-6.25
-6.22
-6.19
-6.14
-6.115
-6.095
-6.145
-6.185
-6.21
-6.21
-6.18
-6.165
-6.155
-6.16
-6.155
-6.15
-6.125
-6.105
-6.105
-6.11
-6.135
-6.155
-6.155
-6.16
-6.14
-6.13
-6.125
-6.14
-6.17
-6.215
-6.225
-6.22
-6.205
-6.165
-6.135
-6.125
-6.105
-6.095
-6.105
-6.12
-6.14
-6.195
-6.25
-6.255
-6.24
-6.235
-6.235
-6.225
-6.22
-6.175
-6.115
-6.045
-6.02
-6.06
-6.135
-6.24
-6.32
-6.365
-6.395
-6.355
-6.305
-6.245
-6.23
-6.26
-6.3
-6.325
-6.33
-6.325
-6.31
-6.31
-6.34
-6.34
-6.35
-6.305
-6.255
-6.22
-6.185
-6.2
-6.235
-6.325
-6.37
-6.365
-6.325
-6.285
-6.22
-6.16
-6.115
-6.085
-6.085
-6.08
-6.08
-6.08
-6.12
-6.175
-6.25
-6.24
-6.225
-6.185
-6.125
-6.12
-6.105
-6.11
-6.115
-6.145
-6.195
-6.25
-6.25
-6.235
-6.19
-6.13
-6.115
-6.14
-6.165
-6.17
-6.175
-6.19
-6.2
-6.19
-6.22
-6.235
-6.24
-6.235
-6.23
-6.265
-6.28
-6.26
-6.27
-6.31
-6.37
-6.43
-6.48
-6.515
-6.49
-6.455
-6.405
-6.4
-6.41
-6.455
-6.425
-6.415
-6.405
-6.385
-6.4
-6.41
-6.395
-6.39
-6.39
-6.385
-6.39
-6.4
-6.395
-6.435
-6.49
-6.55
-6.595
-6.56
-6.515
-6.415
-6.285
-6.115
-5.975
-5.905
-5.91
-5.925
-5.87
-5.69
-5.405
-5.12
-4.89
-4.79
-4.925
-5.265
-5.765
-6.215
-6.585
-6.82
-6.94
-7.04
-7.13
-7.23
-7.3
-7.375
-7.42
-7.425
-7.435
-7.47
-7.505
-7.54
-7.545
-7.52
-7.47
-7.4
-7.305
-7.15
-6.98
-6.845
-6.76
-6.685
-6.61
-6.54
-6.42
-6.315
-6.225
-6.18
-6.205
-6.28
-6.355
-6.385
-6.36
-6.3
-6.225
-6.155
-6.165
-6.195
-6.26
-6.325
-6.355
-6.345
-6.305
-6.265
-6.23
-6.21
-6.22
-6.235
-6.28
-6.325
-6.37
-6.39
-6.38
-6.365
-6.34
-6.3
-6.27
-6.275
-6.315
-6.4
-6.445
-6.49
-6.53
-6.52
-6.51
-6.445
-6.415
-6.36
-6.345
-6.325
-6.295
-6.29
-6.27
-6.3
-6.365
-6.45
-6.485
-6.455
-6.405
-6.36
-6.305
-6.315
-6.31
-6.315
-6.31
-6.285
-6.27
-6.255
-6.205
-6.16
-6.11
-6.07
-6.105
-6.16
-6.19
-6.16
-6.14
-6.125
-6.14
-6.19
-6.215
-6.215
-6.185
-6.155
-6.135
-6.135
-6.14
-6.12
-6.075
-6.035
-6.05
-6.065
-6.1
-6.085
-6.095
-6.11
-6.12
-6.15
-6.155
-6.135
-6.075
-6.025
-6.04
-6.075
-6.1
-6.135
-6.15
-6.115
-6.075
-6.01
-5.965
-5.945
-5.98
-6.075
-6.14
-6.195
-6.195
-6.14
-6.09
-6.08
-6.065
-6.04
-6.03
-6.015
-6.03
-6.06
-6.115
-6.17
-6.195
-6.2
-6.18
-6.165
-6.15
-6.125
-6.125
-6.1
-6.13
-6.135
-6.13
-6.09
-6.065
-6.05
-6.085
-6.08
-6.085
-6.085
-6.065
-6.065
-6.055
-6.075
-6.08
-6.045
-5.99
-5.985
-5.945
-5.955
-5.94
-5.92
-5.87
-5.875
-5.885
-5.925
-5.96
-5.95
-5.91
-5.855
-5.8
-5.8
-5.845
-5.91
-5.97
-5.99
-5.985
-5.975
-5.99
-5.99
-5.98
-5.97
-5.99
-5.98
-5.98
-5.94
-5.905
-5.89
-5.91
-5.94
-5.97
-5.975
-5.98
-5.97
-5.995
-6.065
-6.135
-6.2
-6.26
-6.285
-6.275
-6.23
-6.2
-6.16
-6.125
-6.1
-6.11
-6.11
-6.095
-6.095
-6.085
-6.065
-6.09
-6.15
-6.23
-6.305
-6.34
-6.3
-6.23
-6.19
-6.145
-6.11
-6.12
-6.15
-6.195
-6.245
-6.295
-6.33
-6.34
-6.315
-6.215
-6.035
-5.855
-5.725
-5.67
-5.725
-5.8
-5.875
-5.835
-5.665
-5.365
-5.02
-4.705
-4.56
-4.62
-4.92
-5.405
-5.95
-6.43
-6.77
-6.93
-7.015
-7.05
-7.09
-7.125
-7.195
-7.255
-7.315
-7.34
-7.345
-7.33
-7.31
-7.295
-7.28
-7.255
-7.23
-7.195
-7.125
-7.015
-6.855
-6.715
-6.54
-6.45
-6.375
-6.325
-6.31
-6.255
-6.245
-6.21
-6.195
-6.165
-6.09
-6.04
-6.055
-6.13
-6.23
-6.31
-6.33
-6.305
-6.245
-6.185
-6.15
-6.095
-6.075
-6.1
-6.15
-6.23
-6.27
-6.265
-6.29
-6.33
-6.36
-6.37
-6.365
-6.33
-6.285
-6.275
-6.3
-6.325
-6.305
-6.33
-6.32
-6.335
-6.34
-6.33
-6.305
-6.295
-6.325
-6.42
-6.51
-6.565
-6.56
-6.495
-6.46
-6.445
-6.405
-6.365
-6.34
-6.34
-6.37
-6.395
-6.435
-6.48
-6.5
-6.485
-6.44
-6.37
-6.305
-6.205
-6.165
-6.165
-6.155
-6.12
-6.075
-6.065
-6.115
-6.2
-6.315
-6.385
-6.375
-6.29
-6.175
-6.08
-6.025
-5.995
-6.025
-6.095
-6.14
-6.19
-6.2
-6.2
-6.155
-6.085
-6.05
-6.055
-6.09
-6.135
-6.175
-6.205
-6.215
-6.215
-6.16
-6.115
-6.095
-6.08
-6.095
-6.09
-6.095
-6.08
-6.04
-6.025
-6.045
-6.065
-6.09
-6.125
-6.165
-6.195
-6.17
-6.1
-6.05
-6.055
-6.085
-6.12
-6.135
-6.145
-6.16
-6.18
-6.195
-6.185
-6.17
-6.12
-6.075
-6.035
-6.02
-6.025
-6.03
-6.075
-6.115
-6.125
-6.085
-6.055
-5.995
-5.99
-6.01
-6.045
-6.075
-6.1
-6.095
-6.085
-6.12
-6.13
-6.13
-6.115
-6.105
-6.07
-6.035
-5.95
-5.905
-5.9
-5.845
-5.84
-5.855
-5.885
-5.895
-5.9
-5.895
-5.875
-5.86
-5.86
-5.885
-5.905
-5.88
-5.83
-5.825
-5.895
-6.005
-6.06
-6.095
-6.07
-6.045
-5.99
-5.95
-5.93
-5.935
-5.955
-6.015
-6.065
-6.075
-6.07
-6.04
-6.03
-6.05
-6.04
-6.045
-6.05
-6.065
-6.085
-6.1
-6.115
-6.115
-6.15
-6.205
-6.26
-6.255
-6.18
-6.105
-6.065
-6.065
-6.12
-6.19
-6.24
-6.24
-6.205
-6.15
-6.08
-6.07
-6.115
-6.18
-6.23
-6.275
-6.34
-6.37
-6.36
-6.23
-6.095
-5.955
-5.815
-5.695
-5.62
-5.615
-5.68
-5.745
-5.71
-5.55
-5.29
-5.0
-4.69
-4.5
-4.52
-4.78
-5.215
-5.745
-6.245
-6.59
-6.79
-6.89
-6.95
-7.03
-7.095
-7.19
-7.26
-7.28
-7.225
-7.17
-7.17
-7.28
-7.405
-7.44
-7.375
-7.24
-7.065
-6.945
-6.865
-6.785
-6.675
-6.53
-6.385
-6.28
-6.22
-6.235
-6.26
-6.26
-6.265
-6.25
-6.24
-6.215
-6.235
-6.255
-6.3
-6.325
-6.31
-6.25
-6.215
-6.22
-6.23
-6.255
-6.26
-6.26
-6.275
-6.315
-6.38
-6.48
-6.555
-6.61
-6.575
-6.47
-6.335
-6.22
-6.185
-6.25
-6.385
-6.51
-6.555
-6.56
-6.56
-6.57
-6.595
-6.61
-6.625
-6.625
-6.585
-6.535
-6.485
-6.415
-6.39
-6.41
-6.465
-6.495
-6.495
-6.525
-6.53
-6.54
-6.555
-6.525
-6.49
-6.4
-6.29
-6.22
-6.175
-6.21
-6.295
-6.385
-6.425
-6.435
-6.395
-6.325
-6.275
-6.215
-6.18
-6.18
-6.16
-6.16
-6.15
-6.15
-6.155
-6.115
-6.08
-6.135
-6.225
-6.28
-6.275
-6.2
-6.15
-6.11
-6.105
-6.185
-6.27
-6.295
-6.265
-6.23
-6.205
-6.175
-6.19
-6.225
-6.255
-6.245
-6.19
-6.145
-6.09
-6.155
-6.255
-6.34
-6.36
-6.325
-6.24
-6.17
-6.17
-6.195
-6.22
-6.225
-6.225
-6.24
-6.29
-6.315
-6.325
-6.33
-6.315
-6.3
-6.27
-6.25
-6.24
-6.205
-6.15
-6.1
-6.055
-6.03
-6.075
-6.145
-6.235
-6.25
-6.25
-6.21
-6.18
-6.18
-6.19
-6.205
-6.195
-6.165
-6.16
-6.155
-6.18
-6.205
-6.175
-6.165
-6.14
-6.125
-6.135
-6.135
-6.105
-6.06
-6.02
-5.96
-5.9
-5.865
-5.895
-5.945
-6.015
-6.045
-6.04
-6.0
-5.98
-6.035
-6.135
-6.255
-6.31
-6.27
-6.15
-6.035
-5.995
-6.015
-6.085
-6.145
-6.15
-6.15
-6.185
-6.215
-6.22
-6.225
-6.235
-6.28
-6.32
-6.35
-6.35
-6.315
-6.23
-6.125
-6.09
-6.15
-6.305
-6.435
-6.5
-6.475
-6.39
-6.29
-6.255
-6.265
-6.315
-6.35
-6.355
-6.305
-6.255
-6.225
-6.245
-6.295
-6.34
-6.405
-6.45
-6.49
-6.55
-6.535
-6.42
-6.225
-5.995
-5.8
-5.64
-5.56
-5.53
-5.485
-5.435
-5.335
-5.175
-4.99
-4.865
-4.875
-5.095
-5.505
-6.01
-6.485
-6.88
-7.18
-7.39
-7.53
-7.59
-7.665
-7.685
-7.67
-7.63
-7.6
-7.63
-7.68
-7.71
-7.715
-7.645
-7.535
-7.345
-7.095
-6.875
-6.72
-6.625
-6.57
-6.585
-6.635
-6.705
-6.735
-6.705
-6.65
-6.58
-6.555
-6.545
-6.485
-6.435
-6.425
-6.465
-6.505
-6.52
-6.515
-6.52
-6.535
-6.585
-6.655
-6.705
-6.71
-6.705
-6.69
-6.665
-6.65
-6.605
-6.545
-6.555
-6.615
-6.68
-6.725
-6.76
-6.79
-6.815
-6.855
-6.855
-6.85
-6.82
-6.815
-6.8
-6.81
-6.81
-6.8
-6.785
-6.75
-6.775
-6.82
-6.82
-6.775
-6.72
-6.72
-6.775
-6.845
-6.875
-6.88
-6.85
-6.8
-6.74
-6.705
-6.655
-6.62
-6.61
-6.64
-6.67
-6.665
-6.645
-6.595
-6.545
-6.495
-6.51
-6.53
-6.54
-6.545
-6.515
-6.49
-6.485
-6.49
-6.51
-6.54
-6.545
-6.57
-6.6
-6.605
-6.6
-6.58
-6.6
-6.595
-6.61
-6.595
-6.6
-6.56
-6.51
-6.455
-6.465
-6.545
-6.675
-6.775
-6.77
-6.69
-6.595
-6.525
-6.49
-6.51
-6.51
-6.56
-6.63
-6.73
-6.82
-6.845
-6.815
-6.75
-6.675
-6.665
-6.685
-6.71
-6.675
-6.595
-6.495
-6.48
-6.525
-6.625
-6.75
-6.865
-6.97
-7.01
-6.975
-6.885
-6.765
-6.65
-6.56
-6.52
-6.575
-6.7
-6.805
-6.8
-6.76
-6.76
-6.79
-6.815
-6.8
-6.725
-6.63
-6.56
-6.6
-6.7
-6.775
-6.75
-6.675
-6.575
-6.51
-6.52
-6.6
-6.665
-6.695
-6.625
-6.57
-6.54
-6.55
-6.565
-6.585
-6.595
-6.615
-6.645
-6.69
-6.74
-6.715
-6.655
-6.605
-6.605
-6.68
-6.75
-6.83
-6.875
-6.885
-6.86
-6.82
-6.775
-6.73
-6.73
-6.74
-6.745
-6.8
-6.91
-6.98
-7.035
-7.06
-7.04
-7.015
-6.935
-6.88
-6.85
-6.9
-6.96
-7.0
-7.025
-7.035
-7.035
-7.02
-6.99
-6.985
-6.99
-6.97
-6.96
-6.995
-7.06
-7.12
-7.14
-7.115
-7.09
-7.065
-7.035
-6.9
-6.695
-6.505
-6.355
-6.3
-6.305
-6.305
-6.24
-6.085
-5.875
-5.625
-5.405
-5.34
-5.505
-5.945
-6.57
-7.185
-7.66
-7.945
-8.05
-8.04
-8.02
-8.045
-8.12
-8.235
-8.315
-8.345
-8.34
-8.305
-8.245
-8.195
-8.205
-8.265
-8.32
-8.285
-8.115
-7.87
-7.69
-7.58
-7.545
-7.525
-7.48
-7.41
-7.355
-7.305
-7.285
-7.295
-7.32
-7.355
-7.345
-7.305
-7.28
-7.3
-7.295
-7.28
-7.26
-7.23
-7.18
-7.125
-7.055
-7.04
-7.115
-7.285
-7.435
-7.54
-7.575
-7.585
-7.56
-7.535
-7.485
-7.445
-7.4
-7.4
-7.445
-7.51
-7.56
-7.605
-7.65
-7.63
-7.575
-7.51
-7.45
-7.415
-7.405
-7.495
-7.64
-7.76
-7.77
-7.73
-7.685
-7.655
-7.64
-7.61
-7.575
-7.53
-7.475
-7.465
-7.505
-7.55
-7.57
-7.56
-7.525
-7.475
-7.45
-7.46
-7.455
-7.44
-7.4
-7.39
-7.395
-7.375
-7.365
-7.355
-7.305
-7.255
-7.205
-7.17
-7.19
-7.215
-7.29
-7.365
-7.415
-7.425
-7.42
-7.365
-7.255
-7.195
-7.185
-7.23
-7.255
-7.285
-7.355
-7.435
-7.45
-7.4
-7.29
-7.225
-7.255
-7.35
-7.395
-7.385
-7.33
-7.28
-7.215
-7.135
-7.105
-7.14
-7.215
-7.285
-7.305
-7.31
-7.305
-7.365
-7.395
-7.375
-7.325
-7.24
-7.195
-7.165
-7.19
-7.215
-7.29
-7.37
-7.42
-7.45
-7.42
-7.395
-7.35
-7.32
-7.26
-7.235
-7.235
-7.27
-7.335
-7.365
-7.37
-7.33
-7.335
-7.33
-7.31
-7.285
-7.23
-7.165
-7.125
-7.14
-7.195
-7.235
-7.27
-7.29
-7.275
-7.275
-7.225
-7.185
-7.175
-7.185
-7.115
-7.06
-7.05
-7.08
-7.135
-7.13
-7.07
-6.995
-6.915
-6.89
-6.92
-6.99
-7.085
-7.175
-7.19
-7.175
-7.115
-7.045
-7.01
-6.985
-6.975
-6.945
-6.93
-6.885
-6.9
-7.015
-7.13
-7.235
-7.27
-7.26
-7.225
-7.205
-7.185
-7.18
-7.175
-7.17
-7.19
-7.2
-7.21
-7.185
-7.185
-7.16
-7.14
-7.15
-7.125
-7.095
-7.105
-7.095
-7.105
-7.125
-7.19
-7.27
-7.3
-7.275
-7.205
-7.17
-7.12
-7.09
-7.1
-7.105
-7.12
-7.125
-7.14
-7.15
-7.16
-7.145
-7.125
-7.06
-6.915
-6.745
-6.555
-6.365
-6.21
-6.11
-6.11
-6.195
-6.305
-6.3
-6.135
-5.82
-5.505
-5.27
-5.225
-5.43
-5.875
-6.425
-6.965
-7.405
-7.68
-7.82
-7.885
-7.925
-7.955
-8.03
-8.095
-8.185
-8.215
-8.205
-8.15
-8.085
-7.965
-7.885
-7.84
-7.815
-7.745
-7.64
-7.48
-7.33
-7.195
-7.075
-7.0
-6.955
-6.92
-6.91
-6.915
-6.925
-6.92
-6.895
-6.83
-6.75
-6.675
-6.64
-6.675
-6.765
-6.815
-6.835
-6.825
-6.81
-6.765
-6.755
-6.74
-6.73
-6.715
-6.71
-6.675
-6.675
-6.7
-6.765
-6.83
-6.83
-6.82
-6.77
-6.71
-6.71
-6.74
-6.795
-6.82
-6.825
-6.805
-6.805
-6.82
-6.79
-6.745
-6.775
-6.83
-6.9
-6.94
-6.965
-6.91
-6.84
-6.785
-6.765
-6.78
-6.785
-6.775
-6.78
-6.765
-6.755
-6.73
-6.715
-6.695
-6.675
-6.605
-6.535
-6.52
-6.505
-6.45
-6.42
-6.4
-6.405
-6.45
-6.465
-6.48
-6.485
-6.465
-6.425
-6.375
-6.345
-6.34
-6.345
-6.335
-6.34
-6.34
-6.325
-6.335
-6.355
-6.37
-6.34
-6.3
-6.25
-6.255
-6.31
-6.35
-6.365
-6.365
-6.33
-6.275
-6.24
-6.255
-6.31
-6.31
-6.29
-6.27
-6.28
-6.3
-6.31
-6.335
-6.3
-6.25
-6.23
-6.215
-6.205
-6.245
-6.31
-6.36
-6.38
-6.38
-6.345
-6.31
-6.25
-6.195
-6.155
-6.16
-6.215
-6.285
-6.34
-6.36
-6.325
-6.255
-6.205
-6.2
-6.25
-6.25
-6.26
-6.26
-6.275
-6.27
-6.28
-6.25
-6.26
-6.265
-6.275
-6.24
-6.19
-6.13
-6.1
-6.07
-6.04
-6.02
-6.03
-6.065
-6.105
-6.13
-6.11
-6.07
-6.025
-6.0
-5.99
-5.955
-5.91
-5.86
-5.885
-5.96
-6.06
-6.135
-6.18
-6.19
-6.16
-6.11
-6.065
-6.0
-5.95
-5.92
-5.9
-5.94
-6.01
-6.085
-6.15
-6.18
-6.185
-6.19
-6.16
-6.155
-6.15
-6.18
-6.225
-6.23
-6.235
-6.205
-6.195
-6.15
-6.135
-6.11
-6.125
-6.205
-6.27
-6.29
-6.275
-6.23
-6.245
-6.255
-6.245
-6.255
-6.26
-6.225
-6.235
-6.255
-6.27
-6.27
-6.235
-6.17
-6.07
-5.945
-5.83
-5.715
-5.605
-5.51
-5.445
-5.405
-5.41
-5.41
-5.345
-5.19
-4.965
-4.76
-4.66
-4.76
-5.06
-5.525
-6.085
-6.62
-7.02
-7.24
-7.315
-7.34
-7.34
-7.35
-7.35
-7.365
-7.385
-7.4
-7.43
-7.45
-7.455
-7.43
-7.385
-7.285
-7.195
-7.1
-7.005
-6.94
-6.855
-6.705
-6.535
-6.355
-6.22
-6.135
-6.07
-6.05
-6.11
-6.21
-6.325
-6.38
-6.355
-6.3
-6.165
-6.075
-6.05
-6.05
-6.11
-6.18
-6.19
-6.195
-6.14
-6.125
-6.13
-6.14
-6.17
-6.225
-6.285
-6.295
-6.28
-6.245
-6.22
-6.21
-6.2
-6.23
-6.275
-6.345
-6.42
-6.47
-6.45
-6.39
-6.34
-6.29
-6.275
-6.275
-6.31
-6.375
-6.425
-6.425
-6.425
-6.39
-6.33
-6.265
-6.23
-6.215
-6.215
-6.22
-6.215
-6.175
-6.13
-6.12
-6.18
-6.24
-6.28
-6.26
-6.235
-6.18
-6.1
-6.05
-5.98
-5.965
-5.98
-6.015
-5.985
-5.985
-5.97
-5.98
-5.98
-5.99
-6.02
-6.015
-5.98
-5.935
-5.945
-6.01
-6.06
-6.08
-6.01
-5.945
-5.92
-5.935
-5.985
-6.03
-6.04
-6.005
-5.98
-5.975
-5.975
-5.985
-5.965
-5.915
-5.9
-5.925
-5.97
-5.99
-6.015
-6.02
-6.03
-6.02
-6.03
-6.035
-6.04
-6.005
-5.965
-5.92
-5.92
-5.93
-5.975
-6.02
-6.04
-6.04
-6.01
-5.985
-6.005
-6.03
-6.025
-5.985
-5.94
-5.875
-5.885
-5.895
-5.955
-6.005
-6.045
-6.075
-6.06
-6.03
-5.98
-5.94
-5.94
-5.925
-5.905
-5.89
-5.895
-5.95
-6.02
-6.015
-5.965
-5.87
-5.78
-5.755
-5.79
-5.835
-5.895
-5.895
-5.86
-5.815
-5.755
-5.72
-5.665
-5.61
-5.58
-5.6
-5.66
-5.75
-5.815
-5.845
-5.855
-5.845
-5.83
-5.8
-5.795
-5.805
-5.8
-5.785
-5.8
-5.795
-5.805
-5.82
-5.855
-5.885
-5.87
-5.865
-5.91
-5.985
-6.05
-6.105
-6.1
-6.035
-5.96
-5.93
-5.915
-5.975
-6.005
-6.02
-5.985
-5.965
-5.975
-5.99
-6.015
-6.015
-5.98
-5.895
-5.815
-5.805
-5.92
-6.065
-6.16
-6.165
-6.09
-6.0
-5.945
-5.925
-5.955
-6.01
-6.055
-6.03
-5.925
-5.765
-5.595
-5.445
-5.335
-5.275
-5.255
-5.27
-5.265
-5.21
-5.06
-4.825
-4.58
-4.42
-4.4
-4.645
-5.065
-5.605
-6.115
-6.515
-6.785
-6.92
-6.965
-6.975
-7.0
-7.055
-7.135
-7.225
-7.25
-7.225
-7.21
-7.16
-7.13
-7.075
-7.0
-6.96
-6.89
-6.815
-6.7
-6.5
-6.28
-6.065
-5.965
-5.955
-6.01
-6.055
-6.06
-6.01
-5.94
-5.86
-5.825
-5.825
-5.84
-5.86
-5.895
-5.965
-5.995
-6.0
-5.955
-5.905
-5.88
-5.88
-5.855
-5.88
-5.885
-5.915
-5.965
-6.0
-6.015
-5.99
-5.955
-5.95
-5.945
-5.96
-5.96
-5.95
-5.97
-5.995
-6.055
-6.11
-6.16
-6.16
-6.14
-6.09
-6.04
-6.02
-6.02
-6.065
-6.09
-6.1
-6.12
-6.105
-6.09
-6.09
-6.09
-6.085
-6.1
-6.085
-6.05
-6.01
-5.98
-5.96
-5.95
-5.93
-5.9
-5.895
-5.89
-5.885
-5.875
-5.87
-5.845
-5.83
-5.82
-5.79
-5.765
-5.73
-5.735
-5.78
-5.785
-5.775
-5.755
-5.75
-5.72
-5.715
-5.74
-5.735
-5.745
-5.765
-5.79
-5.78
-5.76
-5.75
-5.74
-5.74
-5.735
-5.745
-5.75
-5.765
-5.77
-5.77
-5.75
-5.705
-5.69
-5.7
-5.73
-5.77
-5.775
-5.775
-5.75
-5.76
-5.76
-5.78
-5.785
-5.805
-5.78
-5.8
-5.83
-5.865
-5.88
-5.84
-5.805
-5.775
-5.735
-5.745
-5.795
-5.825
-5.83
-5.815
-5.78
-5.765
-5.73
-5.72
-5.68
-5.65
-5.685
-5.765
-5.87
-5.895
-5.875
-5.81
-5.755
-5.715
-5.695
-5.685
-5.68
-5.665
-5.675
-5.65
-5.615
-5.585
-5.57
-5.59
-5.575
-5.555
-5.52
-5.505
-5.5
-5.49
-5.53
-5.58
-5.625
-5.68
-5.71
-5.73
-5.74
-5.74
-5.65
-5.6
-5.58
-5.565
-5.57
-5.56
-5.555
-5.595
-5.655
-5.695
-5.73
-5.755
-5.78
-5.83
-5.86
-5.87
-5.86
-5.835
-5.815
-5.79
-5.8
-5.84
-5.9
-5.93
-5.92
-5.87
-5.81
-5.77
-5.76
-5.79
-5.84
-5.92
-5.97
-6.0
-5.94
-5.875
-5.805
-5.77
-5.78
-5.805
-5.88
-5.955
-6.02
-6.015
-5.9
-5.76
-5.605
-5.455
-5.33
-5.275
-5.275
-5.305
-5.32
-5.24
-5.055
-4.835
-4.6
-4.42
-4.365
-4.465
-4.75
-5.19
-5.69
-6.135
-6.455
-6.71
-6.84
-6.895
-6.925
-6.965
-7.015
-7.07
-7.135
-7.18
-7.19
-7.175
-7.16
-7.125
-7.1
-7.055
-7.005
-6.92
-6.785
-6.625
-6.405
-6.185
-6.01
-5.93
-5.955
-6.035
-6.075
-6.085
-6.04
-5.975
-5.88
-5.81
-5.775
-5.8
-5.86
-5.87
-5.845
-5.835
-5.825
-5.855
-5.88
-5.895
-5.885
-5.84
-5.84
-5.895
-5.955
-5.995
-6.0
-5.97
-5.91
-5.9
-5.91
-5.95
-5.975
-6.0
-6.01
-5.985
-5.98
-5.975
-6.01
-6.055
-6.07
-6.075
-6.065
-6.09
-6.085
-6.12
-6.15
-6.165
-6.13
-6.08
-6.035
-6.005
-5.97
-5.95
-5.97
-5.98
-6.025
-6.06
-6.035
-6.02
-5.98
-5.95
-5.895
-5.86
-5.83
-5.835
-5.865
-5.895
-5.885
-5.885
-5.84
-5.81
-5.78
-5.77
-5.74
-5.71
-5.68
-5.685
-5.735
-5.81
-5.87
-5.87
-5.79
-5.695
-5.68
-5.74
-5.845
-5.915
-5.915
-5.865
-5.79
-5.755
-5.75
-5.76
-5.75
-5.72
-5.685
-5.695
-5.745
-5.8
-5.835
-5.85
-5.855
-5.86
-5.85
-5.845
-5.82
-5.825
-5.865
-5.885
-5.885
-5.84
-5.835
-5.835
-5.84
-5.82
-5.78
-5.75
-5.765
-5.825
-5.92
-5.98
-5.995
-5.965
-5.88
-5.81
-5.755
-5.78
-5.795
-5.84
-5.86
-5.85
-5.865
-5.885
-5.89
-5.875
-5.845
-5.81
-5.81
-5.805
-5.83
-5.875
-5.89
-5.885
-5.86
-5.82
-5.8
-5.765
-5.735
-5.69
-5.7
-5.725
-5.74
-5.74
-5.715
-5.675
-5.645
-5.63
-5.615
-5.61
-5.615
-5.61
-5.615
-5.655
-5.695
-5.745
-5.77
-5.765
-5.74
-5.695
-5.67
-5.67
-5.645
-5.62
-5.595
-5.565
-5.58
-5.66
-5.785
-5.88
-5.945
-5.945
-5.905
-5.85
-5.815
-5.835
-5.85
-5.895
-5.915
-5.94
-5.93
-5.895
-5.855
-5.825
-5.835
-5.83
-5.865
-5.92
-5.98
-5.995
-5.985
-5.95
-5.92
-5.885
-5.875
-5.905
-5.935
-5.95
-5.945
-5.92
-5.905
-5.9
-5.95
-5.98
-6.01
-6.06
-6.055
-5.99
-5.87
-5.71
-5.545
-5.37
-5.22
-5.125
-5.115
-5.155
-5.22
-5.22
-5.115
-4.92
-4.66
-4.45
-4.35
-4.47
-4.815
-5.3
-5.87
-6.375
-6.74
-6.9
-6.96
-6.95
-6.985
-7.03
-7.1
-7.145
-7.175
-7.19
-7.185
-7.14
-7.065
-6.975
-6.89
-6.8
-6.765
-6.75
-6.695
-6.57
-6.355
-6.16
-5.995
-5.945
-5.935
-5.995
-6.065
-6.07
-6.06
-6.01
-5.95
-5.875
-5.81
-5.83
-5.83
-5.87
-5.92
-5.985
-6.035
-6.01
-5.975
-5.95
-5.925
-5.92
-5.95
-5.95
-5.98
-6.005
-6.0
-5.99
-5.98
-5.95
-5.925
-5.89
-5.94
-6.03
-6.105
-6.15
-6.16
-6.155
-6.115
-6.085
-6.085
-6.11
-6.125
-6.115
-6.09
-6.075
-6.085
-6.145
-6.22
-6.255
-6.25
-6.235
-6.2
-6.125
-6.05
-6.01
-5.99
-5.995
-6.0
-6.015
-6.02
-6.005
-5.97
-5.945
-5.89
-5.825
-5.825
-5.805
-5.785
-5.775
-5.775
-5.795
-5.835
-5.845
-5.83
-5.805
-5.755
-5.735
-5.76
-5.79
-5.845
-5.86
-5.835
-5.78
-5.77
-5.75
-5.78
-5.805
-5.82
-5.79
-5.78
-5.79
-5.79
-5.795
-5.81
-5.845
-5.825
-5.825
-5.795
-5.785
-5.765
-5.755
-5.755
-5.77
-5.81
-5.855
-5.87
-5.87
-5.835
-5.83
-5.79
-5.745
-5.735
-5.75
-5.79
-5.81
-5.84
-5.835
-5.855
-5.88
-5.86
-5.795
-5.74
-5.705
-5.73
-5.775
-5.835
-5.88
-5.885
-5.835
-5.81
-5.79
-5.79
-5.815
-5.81
-5.78
-5.725
-5.625
-5.545
-5.565
-5.63
-5.715
-5.79
-5.82
-5.81
-5.75
-5.67
-5.59
-5.54
-5.49
-5.475
-5.505
-5.585
-5.63
-5.675
-5.67
-5.675
-5.635
-5.63
-5.655
-5.68
-5.675
-5.65
-5.645
-5.67
-5.675
-5.655
-5.65
-5.655
-5.69
-5.75
-5.815
-5.835
-5.825
-5.855
-5.85
-5.855
-5.84
-5.78
-5.775
-5.765
-5.775
-5.795
-5.805
-5.835
-5.87
-5.875
-5.885
-5.89
-5.91
-5.9
-5.875
-5.85
-5.82
-5.845
-5.865
-5.875
-5.875
-5.845
-5.83
-5.835
-5.86
-5.89
-5.94
-5.965
-5.93
-5.87
-5.745
-5.63
-5.54
-5.42
-5.35
-5.28
-5.24
-5.19
-5.085
-4.92
-4.735
-4.56
-4.465
-4.475
-4.64
-4.955
-5.315
-5.73
-6.125
-6.41
-6.595
-6.655
-6.69
-6.7
-6.735
-6.79
-6.86
-6.975
-7.135
-7.255
-7.305
-7.3
-7.22
-7.115
-7.03
-6.925
-6.83
-6.725
-6.63
-6.505
-6.365
-6.23
-6.12
-6.015
-5.965
-5.94
-5.945
-5.92
-5.865
-5.815
-5.78
-5.805
-5.855
-5.9
-5.945
-5.945
-5.875
-5.85
-5.825
-5.83
-5.84
-5.85
-5.88
-5.915
-5.945
-5.925
-5.9
-5.875
-5.92
-6.0
-6.01
-6.01
-5.93
-5.885
-5.875
-5.875
-5.93
-6.01
-6.1
-6.125
-6.11
-6.07
-6.055
-6.045
-6.05
-6.045
-6.04
-6.04
-6.035
-6.035
-6.07
-6.095
-6.115
-6.12
-6.1
-6.075
-6.07
-6.05
-6.05
-6.035
-5.98
-5.94
-5.905
-5.89
-5.895
-5.92
-5.865
-5.83
-5.81
-5.84
-5.86
-5.865
-5.905
-5.92
-5.915
-5.875
-5.81
-5.745
-5.715
-5.695
-5.715
-5.775
-5.845
-5.885
-5.88
-5.83
-5.78
-5.73
-5.725
-5.745
-5.74
-5.73
-5.765
-5.8
-5.825
-5.835
-5.83
-5.82
-5.8
-5.825
-5.83
-5.86
-5.875
-5.835
-5.76
-5.71
-5.705
-5.72
-5.765
-5.84
-5.92
-5.965
-5.955
-5.88
-5.83
-5.805
-5.82
-5.865
-5.865
-5.855
-5.82
-5.815
-5.8
-5.815
-5.84
-5.87
-5.9
-5.915
-5.9
-5.89
-5.885
-5.915
-5.905
-5.895
-5.865
-5.855
-5.835
-5.83
-5.845
-5.86
-5.88
-5.9
-5.87
-5.84
-5.805
-5.79
-5.81
-5.855
-5.86
-5.83
-5.775
-5.755
-5.765
-5.805
-5.81
-5.775
-5.71
-5.645
-5.605
-5.61
-5.61
-5.66
-5.67
-5.705
-5.74
-5.765
-5.765
-5.785
-5.785
-5.78
-5.755
-5.745
-5.74
-5.72
-5.7
-5.66
-5.67
-5.72
-5.78
-5.8
-5.805
-5.82
-5.86
-5.905
-5.905
-5.885
-5.875
-5.895
-5.935
-5.96
-5.97
-5.98
-6.0
-6.01
-6.01
-6.01
-5.97
-5.945
-5.925
-5.925
-5.95
-6.0
-6.06
-6.075
-6.065
-5.99
-5.93
-5.895
-5.925
-5.99
-6.03
-6.04
-6.025
-6.02
-6.02
-6.005
-6.015
-6.0
-5.99
-5.935
-5.81
-5.68
-5.525
-5.43
-5.385
-5.38
-5.36
-5.32
-5.21
-5.015
-4.8
-4.585
-4.475
-4.51
-4.76
-5.165
-5.655
-6.14
-6.505
-6.765
-6.9
-6.945
-7.005
-7.065
-7.125
-7.16
-7.165
-7.205
-7.2
-7.23
-7.215
-7.195
-7.125
-7.005
-6.885
-6.765
-6.635
-6.52
-6.415
-6.315
-6.195
-6.115
-6.055
-6.04
-6.05
-6.055
-6.065
-6.045
-6.015
-5.97
-5.92
-5.88
-5.94
-5.98
-6.025
-6.065
-6.04
-6.015
-5.985
-5.94
-5.94
-5.95
-5.99
-6.045
-6.065
-6.065
-6.005
-5.975
-5.975
-6.025
-6.1
-6.16
-6.18
-6.21
-6.18
-6.165
-6.15
-6.105
-6.08
-6.065
-6.105
-6.165
-6.215
-6.225
-6.205
-6.18
-6.17
-6.205
-6.245
-6.25
-6.225
-6.17
-6.115
-6.105
-6.16
-6.195
-6.205
-6.19
-6.17
-6.155
-6.14
-6.11
-6.07
-6.04
-6.03
-6.03
-6.03
-6.035
-6.02
-6.0
-5.98
-5.945
-5.92
-5.885
-5.84
-5.805
-5.79
-5.8
-5.845
-5.925
-5.97
-5.975
-5.94
-5.9
-5.88
-5.85
-5.84
-5.85
-5.85
-5.86
-5.85
-5.85
-5.88
-5.895
-5.91
-5.925
-5.96
-5.985
-5.98
-5.935
-5.89
-5.845
-5.855
-5.855
-5.86
-5.87
-5.86
-5.86
-5.895
-5.89
-5.905
-5.92
-5.92
-5.92
-5.91
-5.87
-5.855
-5.855
-5.885
-5.915
-5.92
-5.885
-5.85
-5.89
-5.93
-5.965
-5.965
-5.945
-5.91
-5.86
-5.84
-5.835
-5.885
-5.885
-5.9
-5.895
-5.91
-5.89
-5.94
-5.96
-5.955
-5.915
-5.86
-5.815
-5.755
-5.765
-5.775
-5.82
-5.83
-5.825
-5.8
-5.775
-5.77
-5.715
-5.665
-5.65
-5.69
-5.735
-5.785
-5.775
-5.735
-5.68
-5.665
-5.725
-5.775
-5.79
-5.785
-5.755
-5.715
-5.7
-5.67
-5.65
-5.67
-5.725
-5.795
-5.805
-5.83
-5.87
-5.9
-5.93
-5.935
-5.885
-5.86
-5.8
-5.74
-5.8
-5.845
-5.935
-6.03
-6.08
-6.06
-6.025
-5.97
-5.945
-5.92
-5.915
-5.895
-5.91
-5.96
-6.02
-6.05
-6.07
-6.09
-6.09
-6.065
-6.025
-5.98
-5.93
-5.91
-5.925
-5.965
-6.01
-6.055
-6.11
-6.12
-6.06
-5.945
-5.82
-5.705
-5.585
-5.5
-5.44
-5.435
-5.435
-5.445
-5.385
-5.245
-4.99
-4.735
-4.58
-4.6
-4.815
-5.21
-5.65
-6.05
-6.345
-6.555
-6.71
-6.83
-6.93
-6.975
-6.99
-6.98
-6.96
-6.975
-7.045
-7.14
-7.17
-7.145
-7.095
-7.055
-6.99
-6.945
-6.865
-6.75
-6.62
-6.505
-6.385
-6.275
-6.155
-6.095
-6.065
-6.065
-6.055
-6.04
-6.04
-6.04
-6.03
-6.0
-5.985
-5.975
-5.97
-5.97
-5.95
-5.95
-5.995
-6.07
-6.145
-6.16
-6.11
-6.06
-6.005
-5.985
-6.02
-6.06
-6.095
-6.105
-6.12
-6.145
-6.16
-6.12
-6.085
-6.055
-6.085
-6.135
-6.175
-6.195
-6.17
-6.155
-6.115
-6.14
-6.235
-6.33
-6.365
-6.335
-6.255
-6.165
-6.12
-6.145
-6.2
-6.215
-6.245
-6.24
-6.22
-6.205
-6.18
-6.125
-6.1
-6.085
-6.09
-6.12
-6.135
-6.115
-6.065
-6.06
-6.06
-6.055
-6.03
-6.005
-5.975
-5.975
-6.0
-5.99
-6.02
-5.985
-5.95
-5.905
-5.84
-5.805
-5.78
-5.81
-5.87
-5.925
-5.925
-5.93
-5.905
-5.865
-5.845
-5.835
-5.86
-5.87
-5.875
-5.89
-5.85
-5.83
-5.825
-5.81
-5.83
-5.87
-5.905
-5.925
-5.93
-5.94
-5.93
-5.905
-5.865
-5.82
-5.785
-5.795
-5.84
-5.91
-5.935
-5.96
-5.935
-5.895
-5.855
-5.87
-5.87
-5.865
-5.87
-5.865
-5.845
-5.865
-5.905
-5.965
-6.0
-6.02
-5.995
-5.935
-5.905
-5.88
-5.87
-5.845
-5.82
-5.825
-5.855
-5.935
-5.98
-5.995
-5.99
-5.945
-5.875
-5.84
-5.82
-5.865
-5.905
-5.915
-5.895
-5.84
-5.81
-5.8
-5.81
-5.795
-5.78
-5.755
-5.73
-5.73
-5.755
-5.74
-5.695
-5.655
-5.605
-5.585
-5.635
-5.71
-5.81
-5.875
-5.9
-5.895
-5.835
-5.78
-5.715
-5.68
-5.67
-5.65
-5.66
-5.675
-5.695
-5.745
-5.805
-5.88
-5.91
-5.935
-5.94
-5.925
-5.925
-5.925
-5.94
-5.985
-5.99
-5.975
-5.955
-5.96
-5.985
-6.005
-6.01
-5.975
-5.965
-5.93
-5.93
-5.93
-5.935
-5.95
-5.985
-6.005
-6.01
-6.035
-6.025
-5.995
-5.98
-5.92
-5.91
-5.93
-6.005
-6.08
-6.15
-6.165
-6.13
-6.05
-5.95
-5.825
-5.72
-5.69
-5.685
-5.7
-5.68
-5.58
-5.425
-5.19
-4.92
-4.665
-4.485
-4.485
-4.69
-5.055
-5.47
-5.855
-6.145
-6.31
-6.4
-6.515
-6.69
-6.87
-7.0
-7.025
-7.01
-6.975
-7.005
-7.035
-7.055
-7.05
-7.0
-6.915
-6.795
-6.63
-6.435
-6.26
-6.135
-6.05
-6.03
-6.045
-6.05
-6.055
-6.09
-6.115
-6.1
-6.065
-6.005
-5.935
-5.925
-5.94
-5.975
-5.99
-5.96
-5.93
-5.925
-5.93
-5.935
-5.96
-5.98
-6.025
-6.095
-6.165
-6.19
-6.185
-6.145
-6.095
-6.055
-6.04
-6.035
-6.05
-6.09
-6.15
-6.18
-6.17
-6.18
-6.185
-6.175
-6.16
-6.155
-6.135
-6.135
-6.165
-6.235
-6.26
-6.25
-6.22
-6.15
-6.105
-6.07
-6.09
-6.13
-6.19
-6.22
-6.22
-6.18
-6.135
-6.095
-6.07
-6.05
-6.035
-6.025
-6.02
-6.015
-6.015
-6.03
-6.02
-5.995
-5.975
-5.925
-5.87
-5.81
-5.78
-5.765
-5.83
-5.965
-6.04
-6.05
-6.02
-5.95
-5.885
-5.86
-5.85
-5.84
-5.85
-5.875
-5.89
-5.915
-5.91
-5.94
-5.975
-6.005
-5.965
-5.95
-5.88
-5.84
-5.82
-5.805
-5.77
-5.78
-5.795
-5.825
-5.855
-5.9
-5.985
-6.07
-6.085
-6.015
-5.94
-5.89
-5.885
-5.96
-6.035
-6.045
-6.025
-5.975
-5.93
-5.89
-5.9
-5.955
-6.04
-6.045
-6.05
-6.04
-6.015
-5.975
-5.945
-5.91
-5.895
-5.94
-5.945
-5.96
-5.98
-5.935
-5.875
-5.85
-5.865
-5.94
-6.005
-6.0
-5.94
-5.885
-5.845
-5.84
-5.83
-5.835
-5.835
-5.845
-5.855
-5.82
-5.78
-5.735
-5.71
-5.685
-5.69
-5.655
-5.67
-5.695
-5.765
-5.84
-5.895
-5.93
-5.955
-5.965
-5.91
-5.865
-5.81
-5.78
-5.79
-5.81
-5.85
-5.86
-5.865
-5.875
-5.865
-5.845
-5.87
-5.915
-5.955
-5.98
-5.95
-5.93
-5.935
-6.01
-6.095
-6.12
-6.12
-6.085
-6.04
-6.025
-6.005
-5.975
-5.98
-5.99
-6.03
-6.07
-6.11
-6.075
-6.035
-6.01
-5.995
-6.01
-6.05
-6.095
-6.1
-6.075
-6.075
-6.125
-6.2
-6.25
-6.165
-6.025
-5.86
-5.71
-5.635
-5.62
-5.67
-5.675
-5.57
-5.38
-5.1
-4.855
-4.685
-4.65
-4.745
-5.03
-5.4
-5.77
-6.105
-6.34
-6.525
-6.695
-6.825
-6.885
-6.915
-6.945
-6.975
-7.055
-7.145
-7.22
-7.265
-7.25
-7.175
-7.16
-7.13
-7.085
-6.99
-6.875
-6.695
-6.495
-6.315
-6.165
-6.065
-6.0
-5.995
-6.05
-6.14
-6.205
-6.22
-6.19
-6.115
-6.025
-5.95
-5.89
-5.87
-5.88
-5.905
-5.935
-6.005
-6.045
-6.07
-6.06
-6.07
-6.07
-6.075
-6.07
-6.02
-5.975
-5.94
-5.99
-6.06
-6.17
-6.215
-6.205
-6.175
-6.15
-6.12
-6.085
-6.105
-6.165
-6.24
-6.26
-6.25
-6.21
-6.175
-6.16
-6.16
-6.18
-6.215
-6.22
-6.205
-6.18
-6.18
-6.195
-6.245
-6.23
-6.215
-6.175
-6.18
-6.185
-6.165
-6.11
-6.02
-5.985
-6.015
-6.1
-6.135
-6.145
-6.095
-6.025
-5.995
-5.96
-5.935
-5.9
-5.915
-5.95
-6.02
-6.07
-6.055
-6.0
-5.97
-5.88
-5.82
-5.78
-5.785
-5.86
-5.98
-6.06
-6.045
-5.97
-5.875
-5.83
-5.84
-5.905
-5.975
-6.02
-6.06
-6.045
-6.005
-5.97
-5.95
-5.93
-5.92
-5.925
-5.945
-6.0
-6.05
-6.07
-6.06
-6.025
-5.99
-5.93
-5.94
-6.005
-6.05
-6.055
-6.03
-6.015
-6.03
-6.05
-6.045
-6.065
-6.065
-6.07
-6.06
-6.035
-5.99
-5.975
-5.965
-5.96
-5.945
-5.955
-6.005
-6.05
-6.105
-6.125
-6.105
-6.065
-6.04
-6.02
-6.02
-6.025
-6.03
-6.02
-6.025
-6.01
-6.005
-5.97
-5.92
-5.9
-5.915
-5.925
-5.93
-5.96
-5.975
-6.01
-5.99
-5.92
-5.82
-5.76
-5.745
-5.775
-5.8
-5.815
-5.805
-5.825
-5.82
-5.825
-5.795
-5.785
-5.815
-5.875
-5.925
-5.98
-5.995
-5.985
-5.95
-5.93
-5.855
-5.85
-5.865
-5.94
-6.015
-6.03
-6.01
-5.975
-5.975
-6.04
-6.11
-6.135
-6.11
-6.1
-6.1
-6.105
-6.135
-6.12
-6.11
-6.06
-6.09
-6.145
-6.205
-6.215
-6.17
-6.105
-6.055
-6.03
-6.05
-6.095
-6.135
-6.15
-6.125
-6.105
-6.115
-6.12
-6.15
-6.23
-6.3
-6.3
-6.23
-6.14
-6.01
-5.885
-5.79
-5.755
-5.785
-5.82
-5.825
-5.75
-5.57
-5.285
-4.975
-4.7
-4.545
-4.565
-4.8
-5.245
-5.75
-6.19
-6.505
-6.69
-6.76
-6.795
-6.88
-6.98
-7.095
-7.2
-7.265
-7.29
-7.275
-7.24
-7.2
-7.17
-7.145
-7.12
-7.05
-6.965
-6.845
-6.73
-6.615
-6.525
-6.435
-6.335
-6.25
-6.195
-6.18
-6.145
-6.13
-6.095
-6.07
-6.065
-6.105
-6.13
-6.15
-6.135
-6.135
-6.14
-6.135
-6.12
-6.115
-6.115
-6.11
-6.115
-6.155
-6.17
-6.195
-6.195
-6.18
-6.13
-6.09
-6.08
-6.075
-6.135
-6.215
-6.295
-6.335
-6.345
-6.3
-6.225
-6.15
-6.125
-6.145
-6.24
-6.335
-6.42
-6.43
-6.41
-6.365
-6.325
-6.31
-6.335
-6.355
-6.35
-6.305
-6.24
-6.175
-6.155
-6.195
-6.255
-6.32
-6.335
-6.325
-6.275
-6.2
-6.125
-6.095
-6.06
-6.06
-6.055
-6.05
-6.075
-6.09
-6.11
-6.145
-6.145
-6.085
-6.015
-5.965
-5.94
-5.96
-5.985
-6.015
-6.025
-6.0
-5.99
-6.005
-6.055
-6.09
-6.1
-6.1
-6.085
-6.07
-6.06
-6.05
-6.06
-6.065
-6.055
-6.03
-6.005
-5.995
-5.99
-5.99
-6.0
-5.985
-5.985
-5.98
-6.025
-6.03
-6.055
-6.07
-6.085
-6.085
-6.085
-6.075
-6.05
-6.015
-5.98
-5.985
-6.01
-6.015
-6.01
-5.98
-5.96
-5.955
-6.025
-6.085
-6.12
-6.12
-6.09
-6.05
-6.055
-6.06
-6.105
-6.16
-6.155
-6.15
-6.145
-6.1
-6.065
-6.04
-6.005
-6.01
-6.005
-6.03
-6.05
-6.04
-6.02
-5.955
-5.915
-5.885
-5.87
-5.905
-5.93
-5.94
-5.94
-5.96
-5.94
-5.92
-5.895
-5.865
-5.83
-5.81
-5.795
-5.82
-5.85
-5.905
-5.94
-5.975
-5.97
-5.985
-5.965
-5.96
-5.97
-6.0
-6.025
-6.03
-6.01
-6.0
-5.965
-5.945
-5.96
-5.99
-6.005
-6.015
-6.045
-6.085
-6.1
-6.12
-6.145
-6.17
-6.185
-6.175
-6.155
-6.13
-6.12
-6.135
-6.185
-6.23
-6.24
-6.245
-6.21
-6.15
-6.13
-6.105
-6.115
-6.14
-6.165
-6.175
-6.185
-6.15
-6.14
-6.15
-6.165
-6.21
-6.285
-6.325
-6.345
-6.31
-6.24
-6.115
-5.975
-5.825
-5.715
-5.675
-5.66
-5.68
-5.635
-5.555
-5.44
-5.31
-5.125
-4.955
-4.84
-4.88
-5.09
-5.45
-5.835
-6.17
-6.42
-6.605
-6.69
-6.775
-6.855
-6.94
-7.005
-7.045
-7.09
-7.14
-7.16
-7.18
-7.16
-7.125
-7.095
-7.065
-7.01
-6.905
-6.825
-6.74
-6.63
-6.53
-6.435
-6.325
-6.26
-6.23
-6.215
-6.195
-6.185
-6.155
-6.125
-6.085
-6.05
-6.0
-5.965
-5.96
-6.0
-6.11
-6.2
-6.25
-6.215
-6.16
-6.125
-6.125
-6.155
-6.175
-6.185
-6.16
-6.15
-6.14
-6.135
-6.145
-6.13
-6.16
-6.2
-6.255
-6.295
-6.295
-6.24
-6.175
-6.145
-6.165
-6.22
-6.31
-6.33
-6.335
-6.335
-6.325
-6.31
-6.28
-6.28
-6.31
-6.34
-6.355
-6.33
-6.305
-6.27
-6.23
-6.195
-6.205
-6.255
-6.315
-6.31
-6.27
-6.21
-6.155
-6.105
-6.09
-6.085
-6.095
-6.085
-6.055
-6.02
-6.035
-6.02
-6.04
-6.105
-6.14
-6.17
-6.145
-6.105
-6.045
-6.0
-5.985
-5.99
-6.035
-6.065
-6.07
-6.05
-6.025
-5.985
-5.97
-5.975
-5.995
-6.02
-6.01
-5.98
-5.94
-5.895
-5.88
-5.925
-5.965
-6.03
-6.06
-6.055
-6.015
-5.965
-5.97
-6.03
-6.09
-6.15
-6.155
-6.155
-6.13
-6.09
-6.05
-6.005
-5.985
-6.005
-6.02
-6.065
-6.09
-6.1
-6.075
-6.05
-6.035
-6.055
-6.08
-6.08
-6.085
-6.1
-6.1
-6.075
-6.035
-5.98
-5.95
-5.945
-5.965
-5.98
-5.995
-5.995
-6.02
-6.005
-5.97
-5.96
-5.985
-6.015
-6.05
-6.08
-6.095
-6.07
-6.04
-6.0
-5.97
-5.97
-5.98
-5.99
-6.025
-6.01
-6.005
-5.985
-5.96
-5.98
-6.01
-6.06
-6.145
-6.155
-6.16
-6.125
-6.09
-6.1
-6.105
-6.11
-6.105
-6.095
-6.095
-6.075
-6.055
-6.03
-5.995
-5.96
-5.955
-5.985
-6.025
-6.08
-6.1
-6.11
-6.115
-6.11
-6.105
-6.085
-6.085
-6.075
-6.075
-6.065
-6.04
-6.015
-6.0
-5.975
-5.965
-6.015
-6.07
-6.115
-6.205
-6.24
-6.265
-6.265
-6.25
-6.195
-6.12
-6.025
-5.935
-5.87
-5.795
-5.74
-5.69
-5.62
-5.525
-5.34
-5.135
-4.895
-4.68
-4.585
-4.65
-4.86
-5.185
-5.585
-5.985
-6.325
-6.57
-6.72
-6.835
-6.925
-7.0
-7.04
-7.065
-7.075
-7.085
-7.135
-7.18
-7.21
-7.24
-7.25
-7.18
-7.065
-6.94
-6.805
-6.65
-6.435
-6.275
-6.165
-6.125
-6.095
-6.09
-6.07
-6.055
-6.01
-6.005
-6.045
-6.13
-6.18
-6.175
-6.135
-6.09
-6.045
-6.01
-5.995
-5.975
-5.985
-5.99
-6.01
-6.05
-6.085
-6.16
-6.24
-6.32
-6.355
-6.32
-6.25
-6.175
-6.17
-6.22
-6.28
-6.35
-6.385
-6.385
-6.345
-6.28
-6.165
-6.085
-6.095
-6.18
-6.29
-6.38
-6.42
-6.43
-6.39
-6.3
-6.22
-6.15
-6.175
-6.3
-6.42
-6.49
-6.435
-6.33
-6.215
-6.145
-6.18
-6.23
-6.305
-6.35
-6.335
-6.3
-6.285
-6.25
-6.195
-6.14
-6.11
-6.09
-6.1
-6.13
-6.15
-6.145
-6.115
-6.085
-6.08
-6.05
-6.07
-6.07
-6.08
-6.08
-6.055
-6.01
-6.005
-6.005
-6.035
-6.025
-6.04
-6.04
-6.015
-6.045
-6.085
-6.17
-6.23
-6.23
-6.195
-6.14
-6.105
-6.09
-6.105
-6.12
-6.17
-6.165
-6.145
-6.14
-6.125
-6.135
-6.125
-6.11
-6.07
-6.08
-6.125
-6.17
-6.215
-6.21
-6.175
-6.115
-6.065
-6.065
-6.065
-6.095
-6.145
-6.16
-6.115
-6.045
-5.98
-5.99
-6.07
-6.21
-6.265
-6.29
-6.265
-6.22
-6.175
-6.145
-6.125
-6.11
-6.105
-6.095
-6.105
-6.13
-6.175
-6.205
-6.2
-6.135
-6.065
-6.01
-5.995
-5.99
-6.005
-5.98
-5.995
-6.01
-6.0
-5.995
-5.99
-6.055
-6.135
-6.19
-6.18
-6.16
-6.11
-6.05
-6.015
-6.005
-6.02
-6.005
-5.955
-5.915
-5.855
-5.85
-5.915
-6.0
-6.085
-6.05
-5.975
-5.87
-5.77
-5.72
-5.76
-5.855
-5.93
-6.005
-5.99
-5.985
-5.955
-5.925
-5.89
-5.89
-5.89
-5.895
-5.88
-5.845
-5.805
-5.81
-5.86
-5.915
-5.975
-5.975
-5.99
-6.005
-6.04
-6.075
-6.08
-6.07
-6.055
-6.03
-6.035
-6.03
-6.05
-6.09
-6.115
-6.095
-6.05
-6.0
-6.04
-6.125
-6.245
-6.305
-6.285
-6.205
-6.105
-6.035
-6.015
-6.045
-6.095
-6.135
-6.155
-6.155
-6.15
-6.14
-6.135
-6.15
-6.17
-6.19
-6.24
-6.25
-6.225
-6.11
-5.955
-5.78
-5.65
-5.585
-5.57
-5.595
-5.585
-5.5
-5.32
-5.085
-4.825
-4.595
-4.475
-4.56
-4.875
-5.365
-5.86
-6.235
-6.455
-6.54
-6.63
-6.76
-6.945
-7.15
-7.285
-7.335
-7.335
-7.295
-7.25
-7.225
-7.225
-7.22
-7.165
-7.08
-7.04
-7.03
-6.955
-6.835
-6.68
-6.52
-6.395
-6.295
-6.25
-6.22
-6.205
-6.185
-6.15
-6.125
-6.105
-6.095
-6.075
-6.08
-6.1
-6.105
-6.135
-6.18
-6.22
-6.23
-6.215
-6.17
-6.135
-6.125
-6.16
-6.205
-6.25
-6.265
-6.27
-6.265
-6.265
-6.215
-6.185
-6.185
-6.245
-6.305
-6.39
-6.395
-6.395
-6.375
-6.35
-6.34
-6.33
-6.33
-6.335
-6.305
-6.28
-6.26
-6.255
-6.305
-6.385
-6.445
-6.455
-6.4
-6.34
-6.3
-6.285
-6.295
-6.3
-6.29
-6.255
-6.25
-6.25
-6.225
-6.21
-6.2
-6.195
-6.19
-6.18
-6.15
-6.075
-6.05
-6.085
-6.125
-6.165
-6.19
-6.2
-6.17
-6.12
-6.065
-6.025
-6.01
-5.985
-5.96
-5.935
-5.945
-6.005
-6.05
-6.045
-6.035
-5.99
-5.94
-5.945
-6.005
-6.05
-6.075
-6.055
-6.02
-6.005
-6.02
-6.01
-6.01
-6.015
-6.055
-6.095
-6.13
-6.13
-6.105
-6.055
-6.045
-6.035
-6.035
-6.02
-5.97
-5.92
-5.895
-5.885
-5.965
-6.07
-6.165
-6.195
-6.155
-6.08
-6.0
-5.96
-5.945
-5.96
-5.99
-6.015
-6.05
-6.095
-6.1
-6.075
-6.08
-6.11
-6.14
-6.135
-6.125
-6.105
-6.085
-6.08
-6.065
-6.07
-6.075
-6.085
-6.07
-6.05
-6.035
-6.01
-6.025
-6.075
-6.065
-6.025
-6.0
-5.93
-5.91
-5.9
-5.92
-5.955
-5.95
-5.95
-5.925
-5.895
-5.86
-5.835
-5.815
-5.79
-5.8
-5.825
-5.855
-5.91
-5.955
-6.005
-6.015
-5.99
-5.955
-5.925
-5.925
-5.97
-5.98
-5.975
-5.905
-5.875
-5.83
-5.83
-5.86
-5.935
-6.045
-6.12
-6.16
-6.14
-6.12
-6.085
-6.055
-6.01
-6.0
-5.98
-5.98
-6.005
-6.07
-6.13
-6.175
-6.215
-6.225
-6.195
-6.19
-6.19
-6.21
-6.25
-6.285
-6.305
-6.29
-6.255
-6.245
-6.23
-6.21
-6.185
-6.205
-6.23
-6.28
-6.35
-6.375
-6.33
-6.23
-6.085
-5.99
-5.93
-5.94
-5.93
-5.805
-5.555
-5.255
-4.99
-4.82
-4.855
-5.09
-5.48
-5.945
-6.36
-6.67
-6.87
-7.0
-7.105
-7.165
-7.24
-7.3
-7.35
-7.36
-7.34
-7.325
-7.32
-7.36
-7.385
-7.42
-7.43
-7.395
-7.325
-7.2
-7.04
-6.855
-6.67
-6.525
-6.415
-6.33
-6.315
-6.335
-6.345
-6.365
-6.34
-6.34
-6.325
-6.29
-6.235
-6.195
-6.195
-6.225
-6.255
-6.27
-6.27
-6.29
-6.34
-6.365
-6.38
-6.385
-6.37
-6.37
-6.4
-6.38
-6.37
-6.355
-6.37
-6.375
-6.415
-6.445
-6.465
-6.46
-6.425
-6.405
-6.42
-6.435
-6.48
-6.495
-6.495
-6.51
-6.53
-6.545
-6.565
-6.55
-6.54
-6.5
-6.48
-6.44
-6.425
-6.43
-6.47
-6.505
-6.52
-6.485
-6.445
-6.43
-6.425
-6.455
-6.445
-6.395
-6.32
-6.27
-6.25
-6.28
-6.28
-6.305
-6.31
-6.305
-6.285
-6.255
-6.225
-6.21
-6.22
-6.22
-6.21
-6.21
-6.22
-6.225
-6.23
-6.245
-6.235
-6.22
-6.2
-6.2
-6.19
-6.215
-6.255
-6.28
-6.29
-6.27
-6.225
-6.17
-6.115
-6.12
-6.17
-6.235
-6.295
-6.32
-6.34
-6.335
-6.335
-6.31
-6.305
-6.295
-6.285
-6.255
-6.25
-6.24
-6.245
-6.26
-6.275
-6.29
-6.295
-6.3
-6.295
-6.295
-6.295
-6.285
-6.285
-6.27
-6.265
-6.275
-6.29
-6.29
-6.295
-6.29
-6.29
-6.285
-6.27
-6.285
-6.29
-6.28
-6.265
-6.245
-6.225
-6.22
-6.21
-6.225
-6.225
-6.225
-6.23
-6.225
-6.275
-6.26
-6.23
-6.165
-6.08
-6.035
-6.04
-6.07
-6.1
-6.115
-6.115
-6.115
-6.095
-6.08
-6.055
-6.025
-6.03
-6.04
-6.08
-6.115
-6.17
-6.17
-6.17
-6.145
-6.105
-6.085
-6.045
-6.015
-6.0
-6.015
-6.025
-6.065
-6.1
-6.12
-6.145
-6.17
-6.19
-6.205
-6.195
-6.175
-6.16
-6.165
-6.19
-6.24
-6.305
-6.345
-6.35
-6.325
-6.26
-6.175
-6.12
-6.12
-6.17
-6.255
-6.31
-6.355
-6.34
-6.31
-6.26
-6.24
-6.215
-6.195
-6.2
-6.23
-6.29
-6.325
-6.37
-6.375
-6.345
-6.275
-6.17
-6.06
-5.955
-5.85
-5.755
-5.69
-5.69
-5.69
-5.68
-5.62
-5.5
-5.34
-5.185
-5.025
-4.915
-4.955
-5.175
-5.53
-5.98
-6.405
-6.735
-6.92
-7.02
-7.09
-7.135
-7.175
-7.225
-7.26
-7.26
-7.25
-7.225
-7.22
-7.225
-7.26
-7.295
-7.295
-7.265
-7.185
-7.06
-6.89
-6.7
-6.52
-6.38
-6.295
-6.255
-6.25
-6.275
-6.295
-6.315
-6.315
-6.3
-6.26
-6.2
-6.14
-6.095
-6.08
-6.095
-6.145
-6.2
-6.225
-6.225
-6.2
-6.175
-6.145
-6.15
-6.185
-6.24
-6.29
-6.3
-6.285
-6.245
-6.225
-6.19
-6.185
-6.18
-6.16
-6.145
-6.15
-6.175
-6.215
-6.255
-6.29
-6.335
-6.345
-6.355
-6.36
-6.365
-6.35
-6.325
-6.32
-6.325
-6.32
-6.335
-6.34
-6.345
-6.355
-6.375
-6.385
-6.38
-6.37
-6.325
-6.305
-6.275
-6.26
-6.26
-6.25
-6.22
-6.16
-6.1
-6.09
-6.115
-6.155
-6.17
-6.18
-6.165
-6.15
-6.135
-6.125
-6.105
-6.075
-6.045
-6.005
-5.97
-5.945
-5.95
-5.935
-5.96
-5.975
-6.005
-6.025
-6.035
-6.01
-6.005
-5.975
-5.95
-5.945
-5.925
-5.885
-5.835
-5.77
-5.745
-5.755
-5.785
-5.84
-5.89
-5.895
-5.855
-5.795
-5.74
-5.685
-5.65
-5.665
-5.675
-5.7
-5.725
-5.73
-5.725
-5.725
-5.71
-5.725
-5.75
-5.765
-5.76
-5.725
-5.705
-5.7
-5.72
-5.795
-5.885
-5.935
-5.985
-5.975
-5.93
-5.885
-5.835
-5.805
-5.81
-5.85
-5.925
-6.0
-6.09
-6.145
-6.145
-6.115
-6.095
-6.09
-6.085
-6.11
-6.135
-6.16
-6.19
-6.22
-6.25
-6.26
-6.265
-6.285
-6.28
-6.295
-6.285
-6.27
-6.255
-6.23
-6.215
-6.18
-6.205
-6.225
-6.25
-6.25
-6.235
-6.21
-6.19
-6.195
-6.195
-6.19
-6.18
-6.185
-6.18
-6.16
-6.17
-6.14
-6.105
-6.09
-6.08
-6.085
-6.125
-6.15
-6.17
-6.19
-6.21
-6.24
-6.235
-6.26
-6.26
-6.285
-6.29
-6.325
-6.345
-6.355
-6.365
-6.375
-6.39
-6.41
-6.405
-6.39
-6.37
-6.365
-6.375
-6.39
-6.41
-6.42
-6.42
-6.42
-6.425
-6.415
-6.395
-6.375
-6.365
-6.36
-6.395
-6.38
-6.355
-6.265
-6.17
-6.05
-5.92
-5.845
-5.84
-5.89
-5.92
-5.86
-5.7
-5.445
-5.19
-4.97
-4.89
-5.015
-5.32
-5.74
-6.16
-6.49
-6.705
-6.83
-6.88
-6.97
-7.06
-7.16
-7.25
-7.34
-7.38
-7.365
-7.35
-7.335
-7.315
-7.3
-7.28
-7.265
-7.245
-7.195
-7.1
-6.975
-6.825
-6.65
-6.49
-6.345
-6.24
-6.18
-6.155
-6.165
-6.185
-6.215
-6.2
-6.16
-6.13
-6.115
-6.095
-6.09
-6.07
-6.065
-6.075
-6.08
-6.105
-6.13
-6.145
-6.15
-6.15
-6.155
-6.13
-6.115
-6.12
-6.11
-6.12
-6.135
-6.155
-6.185
-6.21
-6.225
-6.22
-6.22
-6.22
-6.21
-6.215
-6.235
-6.24
-6.245
-6.24
-6.25
-6.26
-6.295
-6.3
-6.305
-6.31
-6.325
-6.305
-6.29
-6.275
-6.265
-6.255
-6.245
-6.25
-6.23
-6.225
-6.215
-6.205
-6.17
-6.15
-6.115
-6.095
-6.08
-6.075
-6.085
-6.105
-6.07
-6.06
-6.04
-6.025
-6.01
-5.98
-5.97
-5.975
-5.965
-5.95
-5.96
-5.935
-5.94
-5.93
-5.915
-5.925
-5.915
-5.91
-5.905
-5.905
-5.915
-5.93
-5.955
-5.96
-5.96
-5.965
-5.955
-5.93
-5.92
-5.905
-5.9
-5.905
-5.92
-5.93
-5.95
-5.97
-5.985
-6.01
-6.025
-6.025
-6.03
-6.02
-6.01
-6.0
-5.985
-5.995
-6.02
-6.06
-6.09
-6.08
-6.05
-5.985
-5.92
-5.885
-5.86
-5.875
-5.915
-5.98
-6.03
-6.1
-6.175
-6.28
-6.375
-6.43
-6.415
-6.3
-6.04
-5.67
-5.235
-4.83
-4.46
-4.24
-4.18
-4.225
-4.405
-4.595
-4.79
-4.97
-5.17
-5.36
-5.55
-5.725
-5.865
-5.965
-6.06
-6.15
-6.195
-6.22
-6.2
-6.14
-6.07
-6.015
-5.955
-5.925
-5.905
-5.885
-5.875
-5.875
-5.875
-5.85
-5.81
-5.78
-5.76
-5.77
-5.8
-5.83
-5.875
-5.925
-5.955
-5.98
-5.995
-5.97
-5.93
-5.875
-5.845
-5.855
-5.885
-5.945
-6.01
-6.05
-6.1
-6.125
-6.12
-6.15
-6.17
-6.23
-6.25
-6.27
-6.315
-6.33
-6.355
-6.345
-6.355
-6.36
-6.38
-6.395
-6.425
-6.44
-6.465
-6.49
-6.5
-6.505
-6.495
-6.505
-6.505
-6.555
-6.575
-6.585
-6.58
-6.565
-6.53
-6.515
-6.5
-6.495
-6.51
-6.505
-6.52
-6.505
-6.525
-6.48
-6.44
-6.38
-6.33
-6.31
-6.27
-6.25
-6.25
-6.24
-6.235
-6.205
-6.19
-6.15
-6.13
-6.1
-6.105
-6.08
-6.075
-6.075
-6.07
-6.075
-6.055
-6.035
-6.02
-6.01
-6.005
-5.985
-5.99
-5.99
-5.98
-5.985
-5.99
-5.98
-5.99
-5.985
-5.995
-5.975
-5.97
-5.95
-5.975
-5.97
-5.97
-5.97
-5.98
-5.97
-5.985
-5.995
-6.005
-6.0
-5.985
-5.955
-5.92
-5.92
-5.905
-5.92
-5.94
-5.96
-5.98
-5.98
-5.96
-5.95
-5.945
-5.92
-5.9
-5.9
-5.88
-5.89
-5.915
-5.93
-5.925
-5.92
-5.91
-5.89
-5.865
-5.875
-5.83
-5.83
-5.835
-5.845
-5.855
-5.865
-5.87
-5.88
-5.865
-5.87
-5.84
-5.825
-5.805
-5.8
-5.81
-5.83
-5.83
-5.86
-5.855
-5.85
-5.835
-5.825
-5.805
-5.8
-5.805
-5.8
-5.79
-5.79
-5.795
-5.805
-5.79
-5.795
-5.81
-5.81
-5.805
-5.8
-5.785
-5.775
-5.77
-5.755
-5.755
-5.77
-5.76
-5.745
-5.735
-5.725
-5.71
-5.715
-5.72
-5.735
-5.715
-5.735
-5.72
-5.74
-5.725
-5.75
-5.76
-5.75
-5.735
-5.695
-5.68
-5.66
-5.67
-5.705
-5.73
-5.73
-5.71
-5.69
-5.635
-5.61
-5.625
-5.625
-5.62
-5.61
-5.595
-5.61
-5.625
-5.66
-5.685
-5.695
-5.675
-5.68
-5.675
-5.66
-5.645
-5.64
-5.655
-5.675
-5.685
-5.73
-5.75
-5.765
-5.755
-5.715
-5.67
-5.635
-5.62
-5.65
-5.675
-5.715
-5.735
-5.72
-5.71
-5.69
-5.67
-5.66
-5.665
-5.685
-5.685
-5.72
-5.71
-5.705
-5.72
-5.715
-5.72
-5.725
-5.73
-5.715
-5.705
-5.695
-5.675
-5.675
-5.675
-5.68
-5.68
-5.68
-5.68
-5.68
-5.695
-5.695
-5.7
-5.72
-5.745
-5.745
-5.725
-5.68
-5.62
-5.505
-5.37
-5.25
-5.1
-5.005
-4.955
-4.94
-4.935
-4.905
-4.795
-4.605
-4.415
-4.285
-4.29
-4.465
-4.8
-5.27
-5.745
-6.135
-6.395
-6.57
-6.655
-6.73
-6.79
-6.86
-6.9
-6.925
-6.955
-6.925
-6.92
-6.89
-6.895
-6.87
-6.85
-6.82
-6.78
-6.675
-6.51
-6.335
-6.155
-5.985
-5.855
-5.79
-5.745
-5.75
-5.725
-5.75
-5.735
-5.73
-5.705
-5.685
-5.66
-5.655
-5.66
-5.65
-5.645
-5.675
-5.685
-5.695
-5.72
-5.725
-5.715
-5.715
-5.72
-5.715
-5.72
-5.72
-5.735
-5.735
-5.755
-5.77
-5.805
-5.805
-5.815
-5.825
-5.82
-5.81
-5.825
-5.835
-5.835
-5.865
-5.88
-5.88
-5.885
-5.885
-5.89
-5.89
-5.87
-5.87
-5.875
-5.885
-5.905
-5.905
-5.915
-5.895
-5.89
-5.875
-5.86
-5.84
-5.825
-5.795
-5.77
-5.76
-5.76
-5.75
-5.74
-5.73
-5.7
-5.675
-5.65
-5.635
-5.63
-5.605
-5.58
-5.565
-5.555
-5.555
-5.525
-5.525
-5.53
-5.545
-5.55
-5.565
-5.57
-5.57
-5.55
-5.56
-5.535
-5.525
-5.515
-5.51
-5.51
-5.52
-5.54
-5.56
-5.57
-5.555
-5.565
-5.54
-5.54
-5.55
-5.545
-5.56
-5.585
-5.575
-5.575
-5.59
-5.61
-5.59
-5.59
-5.57
-5.565
-5.585
-5.59
-5.62
-5.625
-5.665
-5.67
-5.66
-5.625
-5.595
-5.575
-5.58
-5.6
-5.63
-5.655
-5.67
-5.66
-5.68
-5.655
-5.66
-5.64
-5.64
-5.63
-5.635
-5.615
-5.63
-5.625
-5.625
-5.65
-5.645
-5.665
-5.675
-5.675
-5.655
-5.64
-5.62
-5.625
-5.625
-5.65
-5.64
-5.65
-5.66
-5.68
-5.705
-5.71
-5.705
-5.7
-5.68
-5.65
-5.645
-5.63
-5.64
-5.655
-5.665
-5.675
-5.685
-5.68
-5.645
-5.63
-5.615
-5.605
-5.605
-5.62
-5.625
-5.62
-5.63
-5.61
-5.64
-5.635
-5.625
-5.635
-5.61
-5.605
-5.605
-5.605
-5.59
-5.605
-5.615
-5.625
-5.64
-5.67
-5.64
-5.625
-5.605
-5.565
-5.555
-5.53
-5.525
-5.52
-5.505
-5.48
-5.465
-5.455
-5.445
-5.46
-5.465
-5.46
-5.455
-5.435
-5.415
-5.41
-5.42
-5.435
-5.44
-5.455
-5.485
-5.47
-5.46
-5.47
-5.47
-5.465
-5.445
-5.425
-5.425
-5.41
-5.425
-5.465
-5.5
-5.525
-5.535
-5.53
-5.55
-5.56
-5.575
-5.615
-5.635
-5.655
-5.68
-5.685
-5.685
-5.65
-5.655
-5.65
-5.65
-5.66
-5.655
-5.665
-5.665
-5.655
-5.665
-5.675
-5.65
-5.645
-5.625
-5.605
-5.615
-5.645
-5.675
-5.72
-5.745
-5.755
-5.745
-5.71
-5.665
-5.565
-5.42
-5.285
-5.155
-5.055
-5.0
-5.05
-5.11
-5.14
-5.095
-4.945
-4.695
-4.49
-4.34
-4.375
-4.64
-5.075
-5.585
-6.055
-6.385
-6.57
-6.685
-6.715
-6.745
-6.78
-6.815
-6.825
-6.82
-6.84
-6.855
-6.895
-6.915
-6.925
-6.92
-6.88
-6.805
-6.705
-6.595
-6.445
-6.26
-6.105
-5.955
-5.865
-5.805
-5.775
-5.75
-5.76
-5.72
-5.7
-5.68
-5.63
-5.65
-5.62
-5.615
-5.62
-5.625
-5.65
-5.66
-5.675
-5.655
-5.645
-5.625
-5.6
-5.58
-5.585
-5.635
-5.695
-5.72
-5.75
-5.765
-5.75
-5.715
-5.67
-5.66
-5.65
-5.675
-5.705
-5.73
-5.765
-5.79
-5.805
-5.84
-5.87
-5.86
-5.835
-5.765
-5.735
-5.72
-5.745
-5.785
-5.82
-5.875
-5.87
-5.86
-5.81
-5.785
-5.77
-5.77
-5.755
-5.72
-5.695
-5.67
-5.645
-5.685
-5.7
-5.71
-5.715
-5.705
-5.645
-5.575
-5.52
-5.505
-5.49
-5.525
-5.55
-5.585
-5.59
-5.58
-5.53
-5.5
-5.47
-5.47
-5.465
-5.47
-5.485
-5.51
-5.515
-5.525
