-6.67
-6.65
-6.62
-6.58
-6.535
-6.51
-6.49
-6.505
-6.51
-6.495
-6.51
-6.5
-6.51
-6.53
-6.54
-6.545
-6.555
-6.58
-6.58
-6.59
-6.615
-6.605
-6.6
-6.58
-6.57
-6.595
-6.59
-6.585
-6.59
-6.6
-6.605
-6.64
-6.67
-6.725
-6.745
-6.745
-6.765
-6.725
-6.71
-6.7
-6.715
-6.725
-6.72
-6.74
-6.75
-6.785
-6.83
-6.85
-6.875
-6.88
-6.88
-6.86
-6.835
-6.79
-6.755
-6.715
-6.68
-6.66
-6.635
-6.63
-6.655
-6.64
-6.625
-6.585
-6.48
-6.34
-6.215
-6.12
-6.08
-6.07
-6.06
-5.985
-5.86
-5.7
-5.57
-5.565
-5.76
-6.145
-6.645
-7.135
-7.51
-7.715
-7.815
-7.845
-7.87
-7.925
-7.98
-8.045
-8.09
-8.11
-8.09
-8.06
-8.005
-8.005
-7.985
-7.975
-7.94
-7.885
-7.79
-7.65
-7.475
-7.285
-7.11
-6.97
-6.895
-6.855
-6.855
-6.86
-6.865
-6.84
-6.77
-6.715
-6.645
-6.63
-6.675
-6.73
-6.795
-6.82
-6.82
-6.805
-6.79
-6.775
-6.795
-6.795
-6.8
-6.805
-6.785
-6.78
-6.79
-6.805
-6.835
-6.855
-6.875
-6.88
-6.86
-6.84
-6.845
-6.825
-6.845
-6.89
-6.91
-6.925
-6.96
-6.965
-6.955
-6.915
-6.88
-6.875
-6.88
-6.915
-6.935
-6.96
-6.965
-6.94
-6.945
-6.925
-6.905
-6.895
-6.855
-6.82
-6.785
-6.765
-6.73
-6.725
-6.755
-6.775
-6.805
-6.815
-6.795
-6.765
-6.725
-6.705
-6.68
-6.65
-6.67
-6.66
-6.665
-6.67
-6.66
-6.64
-6.63
-6.605
-6.59
-6.585
-6.595
-6.605
-6.605
-6.615
-6.665
-6.73
-6.78
-6.795
-6.77
-6.75
-6.745
-6.76
-6.79
-6.8
-6.81
-6.785
-6.76
-6.755
-6.76
-6.775
-6.81
-6.81
-6.805
-6.76
-6.725
-6.69
-6.685
-6.71
-6.7
-6.735
-6.75
-6.795
-6.84
-6.895
-6.905
-6.915
-6.905
-6.895
-6.88
-6.87
-6.845
-6.85
-6.84
-6.83
-6.82
-6.785
-6.78
-6.8
-6.82
-6.85
-6.875
-6.885
-6.895
-6.925
-6.955
-6.965
-6.95
-6.905
-6.865
-6.825
-6.8
-6.77
-6.755
-6.73
-6.68
-6.65
-6.605
-6.585
-6.585
-6.585
-6.595
-6.61
-6.655
-6.735
-6.845
-6.985
-7.11
-7.16
-7.1
-6.935
-6.635
-6.22
-5.775
-5.405
-5.16
-5.11
-5.235
-5.495
-5.815
-6.145
-6.415
-6.675
-6.89
-7.065
-7.195
-7.29
-7.325
-7.36
-7.385
-7.395
-7.42
-7.39
-7.315
-7.22
-7.15
-7.08
-7.045
-7.05
-7.06
-7.09
-7.11
-7.105
-7.075
-7.04
-6.995
-6.985
-6.985
-6.97
-6.99
-6.985
-6.995
-6.98
-6.985
-7.0
-7.02
-7.02
-7.015
-7.005
-6.985
-6.99
-6.985
-7.0
-6.995
-7.005
-7.035
-7.055
-7.07
-7.085
-7.095
-7.115
-7.12
-7.105
-7.09
-7.085
-7.08
-7.1
-7.14
-7.17
-7.195
-7.215
-7.215
-7.2
-7.215
-7.235
-7.24
-7.245
-7.26
-7.25
-7.245
-7.295
-7.31
-7.33
-7.345
-7.345
-7.325
-7.325
-7.3
-7.245
-7.22
-7.175
-7.175
-7.21
-7.24
-7.28
-7.31
-7.32
-7.325
-7.28
-7.23
-7.145
-7.09
-7.055
-7.025
-7.045
-7.075
-7.085
-7.095
-7.085
-7.055
-7.01
-6.965
-6.96
-6.955
-6.99
-6.995
-6.97
-6.965
-6.945
-6.89
-6.86
-6.86
-6.87
-6.885
-6.905
-6.925
-6.895
-6.845
-6.81
-6.795
-6.81
-6.875
-6.935
-6.965
-6.96
-6.93
-6.89
-6.865
-6.83
-6.825
-6.83
-6.855
-6.87
-6.88
-6.86
-6.855
-6.845
-6.88
-6.925
-6.94
-6.935
-6.9
-6.86
-6.865
-6.875
-6.885
-6.92
-6.93
-6.94
-6.93
-6.935
-6.935
-6.92
-6.89
-6.84
-6.8
-6.77
-6.785
-6.82
-6.855
-6.88
-6.88
-6.875
-6.86
-6.855
-6.835
-6.81
-6.805
-6.785
-6.765
-6.765
-6.785
-6.855
-6.925
-7.0
-7.005
-7.0
-6.985
-6.955
-6.915
-6.885
-6.875
-6.845
-6.84
-6.85
-6.84
-6.835
-6.83
-6.82
-6.815
-6.835
-6.85
-6.875
-6.875
-6.88
-6.85
-6.815
-6.76
-6.71
-6.665
-6.675
-6.705
-6.765
-6.825
-6.855
-6.855
-6.85
-6.835
-6.83
-6.84
-6.82
-6.835
-6.8
-6.805
-6.78
-6.73
-6.72
-6.72
-6.725
-6.74
-6.755
-6.775
-6.775
-6.745
-6.705
-6.67
-6.66
-6.67
-6.68
-6.71
-6.75
-6.79
-6.8
-6.795
-6.76
-6.715
-6.695
-6.69
-6.715
-6.735
-6.71
-6.7
-6.67
-6.66
-6.685
-6.715
-6.73
-6.74
-6.735
-6.74
-6.725
-6.685
-6.675
-6.67
-6.675
-6.665
-6.66
-6.66
-6.63
-6.58
-6.56
-6.54
-6.535
-6.54
-6.56
-6.555
-6.53
-6.495
-6.515
-6.54
-6.58
-6.63
-6.67
-6.68
-6.675
-6.66
-6.6
-6.57
-6.525
-6.49
-6.5
-6.53
-6.565
-6.615
-6.605
-6.62
-6.665
-6.7
-6.755
-6.81
-6.83
-6.85
-6.855
-6.835
-6.81
-6.76
-6.75
-6.745
-6.76
-6.78
-6.805
-6.82
-6.82
-6.805
-6.81
-6.83
-6.875
-6.885
-6.88
-6.86
-6.82
-6.795
-6.81
-6.85
-6.87
-6.845
-6.79
-6.665
-6.53
-6.4
-6.28
-6.195
-6.2
-6.275
-6.34
-6.375
-6.33
-6.165
-5.96
-5.775
-5.645
-5.64
-5.85
-6.18
-6.645
-7.115
-7.485
-7.73
-7.865
-7.895
-7.9
-7.89
-7.91
-7.945
-7.97
-7.945
-7.965
-7.97
-7.985
-7.995
-8.035
-8.06
-8.055
-7.995
-7.885
-7.725
-7.52
-7.345
-7.215
-7.09
-7.0
-6.925
-6.87
-6.85
-6.85
-6.825
-6.79
-6.75
-6.695
-6.66
-6.615
-6.625
-6.64
-6.66
-6.715
-6.755
-6.805
-6.805
-6.77
-6.715
-6.64
-6.58
-6.555
-6.57
-6.615
-6.715
-6.775
-6.805
-6.81
-6.78
-6.71
-6.67
-6.65
-6.655
-6.745
-6.85
-6.92
-6.96
-6.94
-6.915
-6.895
-6.87
-6.85
-6.87
-6.915
-6.955
-6.98
-7.005
-6.955
-6.865
-6.775
-6.72
-6.72
-6.755
-6.755
-6.745
-6.68
-6.595
-6.52
-6.435
-6.34
-6.285
-6.26
-6.265
-6.275
-6.32
-6.38
-6.435
-6.43
-6.405
-6.41
-6.41
-6.46
-6.515
-6.605
-6.66
-6.685
-6.66
-6.625
-6.585
-6.495
-6.43
-6.425
-6.415
-6.43
-6.43
-6.45
-6.45
-6.48
-6.495
-6.53
-6.525
-6.545
-6.555
-6.575
-6.605
-6.63
-6.63
-6.59
-6.475
-6.35
-6.27
-6.19
-6.175
-6.225
-6.25
-6.27
-6.24
-6.23
-6.19
-6.195
-6.17
-6.19
-6.21
-6.255
-6.305
-6.39
-6.405
-6.36
-6.265
-6.15
-6.005
-5.92
-5.86
-5.88
-5.92
-5.985
-6.015
-6.015
-6.015
-6.045
-6.065
-6.05
-6.09
-6.14
-6.215
-6.33
-6.38
-6.425
-6.455
-6.46
-6.415
-6.36
-6.32
-6.3
-6.275
-6.285
-6.31
-6.305
-6.29
-6.25
-6.225
-6.255
-6.27
-6.29
-6.285
-6.27
-6.26
-6.275
-6.315
-6.355
-6.365
-6.345
-6.3
-6.235
-6.195
-6.2
-6.225
-6.26
-6.3
-6.345
-6.37
-6.395
-6.42
-6.455
-6.5
-6.525
-6.515
-6.465
-6.4
-6.4
-6.435
-6.525
-6.68
-6.86
-6.975
-7.0
-6.975
-6.84
-6.695
-6.595
-6.535
-6.545
-6.585
-6.645
-6.685
-6.685
-6.685
-6.645
-6.605
-6.585
-6.565
-6.57
-6.58
-6.6
-6.625
-6.65
-6.675
-6.695
-6.725
-6.745
-6.765
-6.78
-6.78
-6.765
-6.76
-6.745
-6.71
-6.655
-6.565
-6.435
-6.345
-6.285
-6.28
-6.285
-6.28
-6.255
-6.155
-5.99
-5.79
-5.62
-5.525
-5.545
-5.715
-6.05
-6.485
-6.935
-7.29
-7.53
-7.675
-7.755
-7.83
-7.89
-7.975
-8.015
-8.04
-8.035
-8.02
-7.995
-7.97
-7.965
-7.935
-7.92
-7.89
-7.85
-7.78
-7.7
-7.59
-7.46
-7.295
-7.16
-7.075
-7.02
-6.99
-6.975
-7.0
-6.975
-6.97
-6.985
-6.97
-6.95
-6.945
-6.895
-6.855
-6.83
-6.835
-6.875
-6.945
-6.97
-6.97
-6.97
-6.96
-6.94
-6.925
-6.905
-6.905
-6.93
-6.995
-7.085
-7.17
-7.195
-7.19
-7.17
-7.14
-7.135
-7.14
-7.135
-7.135
-7.135
-7.12
-7.115
-7.125
-7.175
-7.21
-7.245
-7.245
-7.185
-7.15
-7.075
-7.035
-7.045
-7.08
-7.13
-7.135
-7.115
-7.07
-7.02
-6.97
-6.91
-6.89
-6.895
-6.925
-6.95
-6.945
-6.915
-6.865
-6.81
-6.745
-6.7
-6.665
-6.64
-6.625
-6.64
-6.67
-6.715
-6.755
-6.745
-6.71
-6.65
-6.6
-6.555
-6.5
-6.485
-6.465
-6.44
-6.43
-6.42
-6.44
-6.44
-6.445
-6.445
-6.425
-6.395
-6.335
-6.3
-6.29
-6.285
-6.3
-6.32
-6.315
-6.31
-6.3
-6.285
-6.235
-6.215
-6.2
-6.225
-6.315
-6.355
-6.37
-6.35
-6.275
-6.185
-6.13
-6.11
-6.105
-6.13
-6.175
-6.175
-6.145
-6.135
-6.095
-6.095
-6.09
-6.08
-6.085
-6.115
-6.135
-6.155
-6.105
-6.03
-6.0
-6.005
-6.02
-6.065
-6.09
-6.1
-6.065
-6.025
-5.945
-5.91
-5.875
-5.88
-5.87
-5.87
-5.82
-5.76
-5.73
-5.71
-5.735
-5.755
-5.78
-5.77
-5.725
-5.64
-5.515
-5.415
-5.355
-5.355
-5.42
-5.495
-5.545
-5.565
-5.575
-5.555
-5.51
-5.455
-5.38
-5.34
-5.32
-5.37
-5.435
-5.475
-5.485
-5.455
-5.4
-5.355
-5.295
-5.285
-5.285
-5.295
-5.32
-5.395
-5.445
-5.475
-5.435
-5.42
-5.425
-5.415
-5.38
-5.32
-5.3
-5.25
-5.245
-5.28
-5.36
-5.44
-5.51
-5.51
-5.49
-5.445
-5.38
-5.305
-5.265
-5.265
-5.305
-5.375
-5.425
-5.465
-5.495
-5.485
-5.47
-5.44
-5.405
-5.37
-5.355
-5.335
-5.285
-5.195
-5.06
-4.91
-4.765
-4.65
-4.61
-4.625
-4.68
-4.695
-4.675
-4.575
-4.425
-4.295
-4.24
-4.3
-4.48
-4.8
-5.195
-5.575
-5.86
-6.06
-6.19
-6.3
-6.375
-6.435
-6.475
-6.485
-6.485
-6.47
-6.46
-6.505
-6.56
-6.565
-6.57
-6.5
-6.395
-6.3
-6.185
-6.085
-5.96
-5.8
-5.64
-5.505
-5.44
-5.42
-5.42
-5.425
-5.415
-5.385
-5.35
-5.34
-5.3
-5.31
-5.33
-5.33
-5.34
-5.315
-5.32
-5.32
-5.355
-5.39
-5.43
-5.395
-5.355
-5.29
-5.275
-5.295
-5.33
-5.41
-5.46
-5.495
-5.475
-5.44
-5.405
-5.375
-5.375
-5.39
-5.39
-5.395
-5.395
-5.415
-5.41
-5.405
-5.38
-5.37
-5.365
-5.395
-5.44
-5.495
-5.53
-5.565
-5.555
-5.495
-5.415
-5.37
-5.33
-5.345
-5.375
-5.44
-5.485
-5.53
-5.555
-5.6
-5.625
-5.61
-5.57
-5.51
-5.45
-5.41
-5.39
-5.39
-5.385
-5.425
-5.46
-5.505
-5.52
-5.515
-5.485
-5.5
-5.525
-5.585
-5.64
-5.69
-5.72
-5.72
-5.69
-5.66
-5.61
-5.59
-5.605
-5.65
-5.655
-5.675
-5.67
-5.63
-5.6
-5.59
-5.645
-5.725
-5.77
-5.77
-5.74
-5.69
-5.65
-5.665
-5.7
-5.77
-5.85
-5.905
-5.945
-5.925
-5.895
-5.84
-5.785
-5.745
-5.735
-5.76
-5.825
-5.91
-5.99
-6.015
-6.015
-5.985
-5.975
-5.94
-5.915
-5.87
-5.855
-5.87
-5.875
-5.9
-5.945
-5.995
-6.0
-5.945
-5.905
-5.89
-5.905
-5.925
-5.965
-6.05
-6.145
-6.21
-6.205
-6.215
-6.23
-6.275
-6.31
-6.315
-6.285
-6.215
-6.135
-6.08
-6.035
-5.99
-5.98
-6.0
-6.055
-6.125
-6.16
-6.18
-6.18
-6.12
-6.04
-5.955
-5.88
-5.81
-5.775
-5.78
-5.855
-5.97
-6.07
-6.12
-6.12
-6.095
-6.05
-6.04
-6.045
-6.065
-6.105
-6.105
-6.08
-6.03
-5.955
-5.885
-5.85
-5.82
-5.805
-5.82
-5.86
-5.895
-5.905
-5.875
-5.855
-5.84
-5.835
-5.82
-5.785
-5.755
-5.745
-5.795
-5.825
-5.865
-5.94
-6.045
-6.2
-6.36
-6.44
-6.46
-6.44
-6.415
-6.355
-6.275
-6.23
-6.21
-6.245
-6.28
-6.37
-6.455
-6.555
-6.62
-6.645
-6.61
-6.535
-6.425
-6.29
-6.175
-6.08
-6.015
-5.935
-5.84
-5.775
-5.735
-5.765
-5.815
-5.85
-5.835
-5.76
-5.595
-5.435
-5.37
-5.495
-5.835
-6.325
-6.845
-7.26
-7.505
-7.56
-7.505
-7.4
-7.38
-7.495
-7.71
-7.92
-8.04
-8.04
-7.915
-7.745
-7.595
-7.525
-7.535
-7.565
-7.54
-7.455
-7.315
-7.17
-7.095
-7.04
-6.955
-6.805
-6.66
-6.52
-6.39
-6.285
-6.245
-6.32
-6.49
-6.695
-6.805
-6.75
-6.545
-6.335
-6.17
-6.125
-6.215
-6.395
-6.575
-6.675
-6.665
-6.58
-6.46
-6.345
-6.3
-6.28
-6.285
-6.315
-6.39
-6.46
-6.495
-6.505
-6.53
-6.545
-6.595
-6.635
-6.64
-6.62
-6.595
-6.57
-6.565
-6.57
-6.61
-6.68
-6.75
-6.785
-6.755
-6.665
-6.54
-6.48
-6.475
-6.55
-6.65
-6.745
-6.785
-6.76
-6.68
-6.565
-6.535
-6.665
-6.875
-7.055
-7.105
-7.0
-6.825
-6.615
-6.395
-6.295
-6.34
-6.455
-6.56
-6.615
-6.635
-6.665
-6.695
-6.69
-6.635
-6.505
-6.355
-6.275
-6.29
-6.4
-6.465
-6.45
-6.435
-6.425
-6.465
-6.51
-6.495
-6.44
-6.375
-6.41
-6.54
-6.705
-6.765
-6.75
-6.665
-6.54
-6.405
-6.3
-6.31
-6.375
-6.445
-6.485
-6.55
-6.59
-6.63
-6.615
-6.535
-6.425
-6.295
-6.185
-6.1
-6.11
-6.165
-6.365
-6.595
-6.755
-6.745
-6.585
-6.435
-6.365
-6.43
-6.545
-6.62
-6.56
-6.465
-6.37
-6.32
-6.305
-6.385
-6.44
-6.485
-6.475
-6.46
-6.385
-6.32
-6.305
-6.295
-6.375
-6.485
-6.555
-6.535
-6.41
-6.28
-6.265
-6.345
-6.44
-6.515
-6.425
-6.29
-6.195
-6.2
-6.335
-6.545
-6.645
-6.63
-6.515
-6.36
-6.22
-6.16
-6.225
-6.375
-6.545
-6.645
-6.69
-6.685
-6.65
-6.62
-6.625
-6.675
-6.725
-6.75
-6.765
-6.795
-6.89
-6.985
-7.065
-7.065
-7.01
-6.92
-6.89
-6.92
-7.03
-7.15
-7.2
-7.17
-7.18
-7.155
-7.06
-6.97
-6.935
-7.005
-7.16
-7.325
-7.405
-7.335
-7.22
-7.05
-6.905
-6.785
-6.74
-6.78
-6.89
-7.005
-7.01
-6.925
-6.78
-6.605
-6.46
-6.36
-6.34
-6.37
-6.445
-6.55
-6.645
-6.71
-6.645
-6.505
-6.325
-6.175
-6.055
-6.005
-5.995
-6.005
-6.05
-6.09
-6.055
-6.01
-5.945
-5.88
-5.855
-5.975
-6.275
-6.695
-7.145
-7.5
-7.67
-7.705
-7.72
-7.775
-7.865
-7.94
-8.01
-8.075
-8.1
-8.105
-8.09
-8.095
-8.125
-8.15
-8.085
-7.955
-7.775
-7.575
-7.41
-7.305
-7.255
-7.225
-7.24
-7.215
-7.22
-7.225
-7.175
-7.15
-7.115
-7.125
-7.14
-7.145
-7.125
-7.125
-7.135
-7.175
-7.22
-7.25
-7.255
-7.215
-7.17
-7.12
-7.08
-7.06
-7.07
-7.06
-7.025
-6.97
-6.915
-6.855
-6.855
-6.91
-7.015
-7.09
-7.105
-7.08
-7.01
-6.945
-6.955
-7.01
-7.05
-7.065
-7.04
-7.015
-6.99
-6.94
-6.92
-6.95
-7.045
-7.18
-7.265
-7.255
-7.2
-7.125
-7.075
-7.065
-7.085
-7.145
-7.205
-7.225
-7.225
-7.165
-7.1
-7.08
-7.07
-7.085
-7.075
-7.065
-7.055
-7.03
-6.99
-6.94
-6.89
-6.905
-7.0
-7.12
-7.215
-7.245
-7.225
-7.15
-7.1
-7.065
-7.08
-7.09
-7.09
-7.055
-7.025
-7.005
-7.03
-7.115
-7.17
-7.235
-7.29
-7.315
-7.245
-7.165
-7.065
-7.02
-7.065
-7.115
-7.2
-7.275
-7.31
-7.285
-7.26
-7.2
-7.14
-7.115
-7.1
-7.1
-7.11
-7.1
-7.095
-7.1
-7.11
-7.045
-6.985
-6.965
-7.01
-7.07
-7.1
-7.075
-7.01
-6.96
-6.915
-6.89
-6.89
-6.905
-6.935
-6.935
-6.935
-6.96
-7.005
-7.015
-6.975
-6.945
-6.965
-7.0
-7.055
-7.095
-7.13
-7.135
-7.145
-7.14
-7.125
-7.08
-7.07
-7.03
-7.0
-6.99
-7.0
-7.0
-7.0
-6.965
-6.94
-6.915
-6.93
-6.92
-6.915
-6.885
-6.875
-6.885
-6.88
-6.83
-6.795
-6.74
-6.75
-6.8
-6.91
-7.025
-7.105
-7.09
-7.01
-6.895
-6.815
-6.805
-6.875
-6.94
-7.0
-7.015
-7.02
-6.98
-6.955
-6.91
-6.885
-6.9
-6.94
-7.02
-7.085
-7.125
-7.105
-7.03
-6.965
-6.94
-6.985
-7.045
-7.1
-7.155
-7.165
-7.145
-7.11
-7.095
-7.09
-7.08
-7.055
-7.015
-6.975
-6.905
-6.885
-6.935
-7.05
-7.185
-7.24
-7.25
-7.22
-7.145
-7.035
-6.885
-6.725
-6.575
-6.435
-6.335
-6.275
-6.225
-6.16
-6.11
-6.1
-6.05
-6.005
-6.0
-6.01
-6.13
-6.4
-6.77
-7.14
-7.46
-7.7
-7.84
-7.915
-7.98
-8.03
-8.075
-8.12
-8.15
-8.185
-8.18
-8.18
-8.195
-8.19
-8.185
-8.15
-8.07
-7.99
-7.895
-7.805
-7.685
-7.565
-7.425
-7.315
-7.255
-7.225
-7.185
-7.11
-7.08
-7.08
-7.125
-7.165
-7.175
-7.175
-7.155
-7.12
-7.09
-7.065
-7.04
-7.035
-7.03
-7.02
-7.02
-7.02
-7.025
-7.025
-7.005
-6.995
-7.0
-7.025
-7.07
-7.135
-7.185
-7.225
-7.245
-7.24
-7.215
-7.185
-7.18
-7.195
-7.2
-7.21
-7.25
-7.27
-7.315
-7.33
-7.355
-7.34
-7.315
-7.29
-7.255
-7.23
-7.245
-7.25
-7.245
-7.24
-7.255
-7.26
-7.24
-7.225
-7.17
-7.12
-7.08
-7.045
-7.01
-7.015
-7.04
-7.105
-7.125
-7.165
-7.145
-7.14
-7.145
-7.155
-7.13
-7.105
-7.075
-7.05
-7.025
-7.01
-7.015
-6.995
-7.01
-7.02
-7.015
-7.015
-7.005
-6.995
-7.005
-6.98
-6.98
-7.01
-6.99
-6.985
-7.0
-7.025
-7.035
-7.045
-7.02
-7.01
-6.98
-6.93
-6.935
-6.94
-6.97
-7.01
-7.055
-7.055
-7.045
-7.025
-7.01
-7.0
-6.995
-7.025
-7.025
-7.04
-7.08
-7.12
-7.155
-7.145
-7.13
-7.11
-7.07
-7.055
-7.025
-7.01
-7.02
-7.01
-7.025
-7.045
-7.07
-7.08
-7.085
-7.105
-7.085
-7.055
-7.035
-7.025
-7.015
-7.01
-7.025
-7.005
-7.015
-7.03
-7.02
-7.02
-7.015
-7.0
-7.0
-7.01
-7.035
-7.03
-7.055
-7.08
-7.095
-7.075
-7.045
-6.99
-6.925
-6.88
-6.865
-6.875
-6.91
-6.94
-6.935
-6.915
-6.88
-6.86
-6.825
-6.86
-6.91
-6.93
-6.945
-6.93
-6.915
-6.885
-6.84
-6.81
-6.78
-6.745
-6.75
-6.75
-6.8
-6.885
-6.975
-7.035
-7.06
-7.015
-7.0
-6.965
-6.98
-7.025
-7.085
-7.12
-7.13
-7.13
-7.115
-7.095
-7.07
-7.035
-7.015
-7.005
-6.99
-6.985
-7.015
-7.03
-7.055
-7.07
-7.08
-7.085
-7.07
-7.07
-7.055
-7.05
-7.04
-7.035
-7.045
-7.07
-7.085
-7.06
-7.0
-6.885
-6.77
-6.62
-6.49
-6.42
-6.39
-6.385
-6.36
-6.265
-6.135
-5.965
-5.835
-5.81
-5.92
-6.19
-6.61
-7.08
-7.485
-7.75
-7.91
-7.995
-8.06
-8.08
-8.085
-8.08
-8.08
-8.075
-8.08
-8.085
-8.095
-8.095
-8.055
-8.015
-7.955
-7.92
-7.865
-7.755
-7.64
-7.52
-7.41
-7.315
-7.21
-7.135
-7.105
-7.07
-7.075
-7.06
-7.025
-6.985
-6.94
-6.93
-6.915
-6.87
-6.83
-6.795
-6.815
-6.885
-7.005
-7.11
-7.18
-7.19
-7.16
-7.085
-7.005
-6.965
-6.97
-6.97
-7.02
-7.015
-7.035
-7.05
-7.035
-7.01
-7.0
-7.01
-7.015
-7.035
-7.045
-7.05
-7.07
-7.075
-7.08
-7.085
-7.095
-7.095
-7.095
-7.08
-7.085
-7.085
-7.095
-7.12
-7.14
-7.14
-7.14
-7.13
-7.11
-7.075
-7.07
-7.05
-7.025
-7.015
-7.0
-6.995
-6.98
-6.975
-6.98
-6.98
-6.97
-6.95
-6.94
-6.935
-6.91
-6.9
-6.895
-6.87
-6.87
-6.87
-6.885
-6.875
-6.885
-6.855
-6.845
-6.855
-6.86
-6.895
-6.915
-6.915
-6.9
-6.905
-6.915
-6.905
-6.885
-6.875
-6.865
-6.855
-6.855
-6.87
-6.875
-6.885
-6.855
-6.805
-6.76
-6.725
-6.715
-6.73
-6.775
-6.8
-6.795
-6.8
-6.835
-6.855
-6.89
-6.895
-6.915
-6.93
-6.955
-6.915
-6.9
-6.88
-6.85
-6.835
-6.81
-6.825
-6.825
-6.815
-6.81
-6.775
-6.745
-6.68
-6.63
-6.575
-6.565
-6.59
-6.65
-6.715
-6.72
-6.74
-6.73
-6.75
-6.755
-6.765
-6.79
-6.81
-6.785
-6.775
-6.745
-6.735
-6.775
-6.815
-6.885
-6.94
-6.95
-6.935
-6.9
-6.85
-6.84
-6.835
-6.86
-6.87
-6.875
-6.87
-6.87
-6.87
-6.865
-6.85
-6.835
-6.825
-6.835
-6.83
-6.84
-6.845
-6.815
-6.795
-6.8
-6.795
-6.81
-6.83
-6.825
-6.82
-6.79
-6.805
-6.795
-6.795
-6.785
-6.75
-6.72
-6.695
-6.645
-6.6
-6.585
-6.64
-6.745
-6.835
-6.9
-6.885
-6.85
-6.81
-6.775
-6.76
-6.775
-6.745
-6.7
-6.645
-6.55
-6.43
-6.3
-6.19
-6.155
-6.185
-6.215
-6.25
-6.195
-6.035
-5.825
-5.62
-5.455
-5.415
-5.51
-5.735
-6.075
-6.465
-6.8
-7.03
-7.185
-7.305
-7.44
-7.55
-7.635
-7.68
-7.69
-7.69
-7.665
-7.66
-7.685
-7.715
-7.745
-7.75
-7.715
-7.66
-7.545
-7.43
-7.28
-7.15
-7.025
-6.885
-6.755
-6.65
-6.615
-6.625
-6.685
-6.71
-6.735
-6.725
-6.695
-6.645
-6.595
-6.565
-6.55
-6.58
-6.645
-6.635
-6.65
-6.65
-6.675
-6.74
-6.775
-6.78
-6.77
-6.745
-6.72
-6.725
-6.735
-6.73
-6.705
-6.72
-6.74
-6.775
-6.805
-6.825
-6.845
-6.865
-6.88
-6.9
-6.905
-6.9
-6.875
-6.845
-6.8
-6.785
-6.765
-6.815
-6.855
-6.865
-6.855
-6.87
-6.885
-6.92
-6.935
-6.91
-6.855
-6.805
-6.775
-6.78
-6.79
-6.795
-6.76
-6.725
-6.68
-6.685
-6.69
-6.75
-6.785
-6.775
-6.73
-6.62
-6.535
-6.48
-6.54
-6.635
-6.695
-6.715
-6.705
-6.675
-6.65
-6.65
-6.655
-6.65
-6.635
-6.62
-6.625
-6.62
-6.635
-6.635
-6.685
-6.685
-6.72
-6.73
-6.745
-6.76
-6.74
-6.695
-6.71
-6.73
-6.775
-6.79
-6.78
-6.755
-6.7
-6.625
-6.59
-6.56
-6.555
-6.58
-6.59
-6.605
-6.59
-6.56
-6.505
-6.455
-6.435
-6.425
-6.43
-6.455
-6.445
-6.46
-6.44
-6.42
-6.38
-6.34
-6.325
-6.335
-6.38
-6.395
-6.395
-6.37
-6.38
-6.4
-6.42
-6.405
-6.395
-6.36
-6.34
-6.375
-6.395
-6.4
-6.395
-6.38
-6.375
-6.375
-6.44
-6.465
-6.485
-6.475
-6.45
-6.425
-6.4
-6.405
-6.415
-6.425
-6.4
-6.405
-6.4
-6.4
-6.41
-6.415
-6.435
-6.46
-6.49
-6.465
-6.385
-6.29
-6.235
-6.25
-6.305
-6.34
-6.34
-6.28
-6.235
-6.175
-6.13
-6.135
-6.155
-6.2
-6.185
-6.18
-6.185
-6.21
-6.255
-6.275
-6.325
-6.38
-6.425
-6.44
-6.385
-6.31
-6.255
-6.245
-6.245
-6.275
-6.32
-6.355
-6.39
-6.38
-6.35
-6.395
-6.445
-6.495
-6.535
-6.565
-6.61
-6.62
-6.595
-6.595
-6.58
-6.57
-6.56
-6.565
-6.58
-6.605
-6.655
-6.7
-6.695
-6.68
-6.625
-6.56
-6.525
-6.545
-6.605
-6.685
-6.735
-6.785
-6.775
-6.765
-6.735
-6.74
-6.755
-6.725
-6.705
-6.645
-6.57
-6.465
-6.375
-6.32
-6.325
-6.345
-6.365
-6.33
-6.23
-6.035
-5.8
-5.615
-5.575
-5.72
-6.04
-6.475
-6.88
-7.195
-7.36
-7.43
-7.445
-7.445
-7.495
-7.54
-7.595
-7.645
-7.665
-7.635
-7.655
-7.64
-7.64
-7.605
-7.545
-7.465
-7.36
-7.23
-7.125
-7.035
-6.95
-6.87
-6.77
-6.7
-6.655
-6.645
-6.66
-6.66
-6.635
-6.63
-6.615
-6.625
-6.615
-6.59
-6.55
-6.55
-6.58
-6.615
-6.665
-6.66
-6.635
-6.575
-6.54
-6.535
-6.55
-6.61
-6.635
-6.68
-6.69
-6.69
-6.665
-6.655
-6.665
-6.685
-6.7
-6.715
-6.725
-6.785
-6.825
-6.85
-6.865
-6.855
-6.825
-6.74
-6.69
-6.68
-6.74
-6.78
-6.8
-6.775
-6.755
-6.76
-6.8
-6.84
-6.875
-6.875
-6.85
-6.825
-6.77
-6.725
-6.715
-6.705
-6.705
-6.735
-6.75
-6.755
-6.735
-6.705
-6.69
-6.66
-6.625
-6.62
-6.605
-6.615
-6.64
-6.64
-6.635
-6.625
-6.595
-6.55
-6.535
-6.535
-6.585
-6.595
-6.595
-6.605
-6.6
-6.58
-6.555
-6.56
-6.605
-6.625
-6.64
-6.645
-6.615
-6.595
-6.58
-6.575
-6.585
-6.585
-6.56
-6.545
-6.535
-6.55
-6.58
-6.595
-6.62
-6.63
-6.63
-6.61
-6.58
-6.52
-6.51
-6.515
-6.565
-6.615
-6.63
-6.6
-6.595
-6.6
-6.6
-6.6
-6.595
-6.605
-6.59
-6.59
-6.595
-6.6
-6.615
-6.63
-6.625
-6.625
-6.625
-6.615
-6.62
-6.625
-6.65
-6.645
-6.625
-6.615
-6.6
-6.58
-6.575
-6.61
-6.65
-6.665
-6.68
-6.655
-6.64
-6.63
-6.635
-6.635
-6.62
-6.6
-6.555
-6.525
-6.5
-6.485
-6.49
-6.5
-6.505
-6.505
-6.5
-6.46
-6.445
-6.44
-6.435
-6.44
-6.43
-6.43
-6.46
-6.505
-6.515
-6.545
-6.54
-6.55
-6.55
-6.525
-6.535
-6.54
-6.525
-6.53
-6.54
-6.56
-6.57
-6.58
-6.6
-6.625
-6.63
-6.625
-6.62
-6.625
-6.63
-6.685
-6.705
-6.735
-6.77
-6.76
-6.735
-6.72
-6.685
-6.67
-6.66
-6.655
-6.645
-6.665
-6.685
-6.69
-6.675
-6.655
-6.67
-6.685
-6.715
-6.745
-6.735
-6.71
-6.7
-6.69
-6.715
-6.775
-6.8
-6.825
-6.79
-6.72
-6.645
-6.545
-6.475
-6.44
-6.375
-6.365
-6.405
-6.4
-6.37
-6.24
-6.04
-5.82
-5.625
-5.555
-5.66
-5.96
-6.345
-6.745
-7.035
-7.235
-7.32
-7.375
-7.42
-7.495
-7.605
-7.68
-7.74
-7.755
-7.72
-7.685
-7.66
-7.665
-7.675
-7.67
-7.66
-7.62
-7.575
-7.47
-7.32
-7.135
-6.945
-6.825
-6.73
-6.685
-6.685
-6.69
-6.68
-6.65
-6.625
-6.615
-6.605
-6.6
-6.605
-6.625
-6.65
-6.675
-6.65
-6.64
-6.635
-6.635
-6.665
-6.65
-6.635
-6.63
-6.605
-6.605
-6.635
-6.685
-6.72
-6.73
-6.745
-6.73
-6.7
-6.7
-6.69
-6.68
-6.675
-6.705
-6.755
-6.82
-6.865
-6.87
-6.865
-6.83
-6.775
-6.75
-6.71
-6.725
-6.75
-6.82
-6.87
-6.88
-6.87
-6.84
-6.825
-6.785
-6.81
-6.815
-6.83
-6.795
-6.76
-6.72
-6.7
-6.725
-6.74
-6.765
-6.74
-6.71
-6.68
-6.655
-6.62
-6.59
-6.59
-6.625
-6.665
-6.675
-6.66
-6.65
-6.67
-6.68
-6.685
-6.67
-6.635
-6.61
-6.6
-6.595
-6.615
-6.62
-6.605
-6.635
-6.655
-6.72
-6.755
-6.75
-6.725
-6.68
-6.645
-6.625
-6.625
-6.62
-6.635
-6.65
-6.68
-6.7
-6.7
-6.665
-6.64
-6.615
-6.6
-6.635
-6.675
-6.695
-6.715
-6.69
-6.635
-6.63
-6.665
-6.73
-6.74
-6.725
-6.68
-6.635
-6.665
-6.695
-6.715
-6.695
-6.64
-6.6
-6.58
-6.605
-6.685
-6.77
-6.785
-6.765
-6.69
-6.66
-6.69
-6.73
-6.73
-6.715
-6.685
-6.665
-6.665
-6.69
-6.7
-6.655
-6.555
-6.48
-6.485
-6.575
-6.655
-6.68
-6.63
-6.545
-6.43
-6.395
-6.4
-6.425
-6.505
-6.585
-6.645
-6.66
-6.62
-6.58
-6.54
-6.53
-6.525
-6.565
-6.58
-6.535
-6.5
-6.475
-6.515
-6.605
-6.695
-6.765
-6.755
-6.685
-6.595
-6.54
-6.565
-6.61
-6.615
-6.625
-6.695
-6.785
-6.845
-6.82
-6.79
-6.785
-6.805
-6.83
-6.82
-6.74
-6.675
-6.665
-6.72
-6.815
-6.945
-6.995
-6.95
-6.805
-6.675
-6.615
-6.635
-6.71
-6.83
-6.97
-7.02
-7.01
-6.985
-6.965
-6.97
-6.94
-6.865
-6.775
-6.685
-6.57
-6.525
-6.635
-6.85
-7.0
-6.875
-6.545
-6.12
-5.805
-5.71
-5.805
-5.955
-6.045
-6.165
-6.335
-6.515
-6.685
-6.815
-6.965
-7.195
-7.46
-7.63
-7.665
-7.67
-7.685
-7.61
-7.42
-7.23
-7.225
-7.45
-7.705
-7.92
-8.025
-7.915
-7.6
-7.185
-6.825
-6.66
-6.775
-7.0
-7.125
-7.055
-6.88
-6.75
-6.75
-6.795
-6.775
-6.635
-6.515
-6.465
-6.455
-6.435
-6.525
-6.645
-6.74
-6.845
-6.88
-6.845
-6.72
-6.535
-6.37
-6.245
-6.23
-6.31
-6.51
-6.685
-6.765
-6.755
-6.695
-6.67
-6.685
-6.725
-6.765
-6.74
-6.68
-6.585
-6.53
-6.5
-6.53
-6.585
-6.61
-6.695
-6.875
-6.95
-6.92
-6.79
-6.655
-6.59
-6.625
-6.71
-6.745
-6.72
-6.65
-6.605
-6.58
-6.565
-6.58
-6.62
-6.635
-6.615
-6.57
-6.54
-6.59
-6.71
-6.86
-6.86
-6.73
-6.52
-6.345
-6.26
-6.275
-6.37
-6.51
-6.65
-6.72
-6.675
-6.595
-6.49
-6.4
-6.345
-6.34
-6.395
-6.445
-6.475
-6.49
-6.495
-6.525
-6.5
-6.435
-6.35
-6.325
-6.35
-6.47
-6.645
-6.695
-6.63
-6.495
-6.39
-6.33
-6.315
-6.325
-6.355
-6.39
-6.38
-6.4
-6.435
-6.47
-6.5
-6.535
-6.56
-6.495
-6.44
-6.36
-6.38
-6.475
-6.55
-6.545
-6.475
-6.415
-6.36
-6.37
-6.4
-6.43
-6.45
-6.47
-6.465
-6.455
-6.445
-6.435
-6.43
-6.45
-6.465
-6.455
-6.43
-6.4
-6.415
-6.45
-6.43
-6.42
-6.4
-6.375
-6.35
-6.34
-6.38
-6.45
-6.5
-6.475
-6.42
-6.34
-6.3
-6.275
-6.3
-6.315
-6.315
-6.35
-6.365
-6.385
-6.37
-6.35
-6.325
-6.335
-6.31
-6.295
-6.29
-6.315
-6.33
-6.36
-6.405
-6.45
-6.49
-6.505
-6.535
-6.555
-6.59
-6.64
-6.66
-6.68
-6.665
-6.69
-6.72
-6.755
-6.835
-6.86
-6.865
-6.855
-6.86
-6.855
-6.855
-6.875
-6.91
-6.955
-6.99
-7.01
-7.01
-7.0
-6.98
-6.94
-6.89
-6.885
-6.91
-6.935
-6.95
-6.995
-7.02
-7.03
-7.04
-7.015
-6.97
-6.91
-6.885
-6.955
-7.06
-7.165
-7.21
-7.19
-7.13
-7.065
-6.97
-6.85
-6.755
-6.695
-6.64
-6.655
-6.675
-6.675
-6.595
-6.43
-6.18
-5.975
-5.845
-5.86
-6.065
-6.415
-6.835
-7.22
-7.475
-7.595
-7.65
-7.67
-7.68
-7.73
-7.76
-7.76
-7.77
-7.8
-7.85
-7.88
-7.905
-7.89
-7.88
-7.865
-7.81
-7.735
-7.595
-7.44
-7.25
-7.095
-6.965
-6.905
-6.91
-6.93
-6.945
-6.965
-7.005
-7.015
-7.03
-7.015
-6.98
-6.955
-6.94
-6.935
-6.94
-6.97
-6.98
-6.96
-6.925
-6.905
-6.91
-6.95
-6.99
-6.985
-6.98
-6.98
-7.0
-7.025
-7.05
-7.06
-7.05
-7.06
-7.065
-7.075
-7.085
-7.105
-7.11
-7.115
-7.105
-7.095
-7.095
-7.09
-7.095
-7.1
-7.1
-7.085
-7.06
-7.04
-7.02
-7.04
-7.05
-7.08
-7.095
-7.09
-7.055
-7.035
-7.025
-7.0
-6.97
-6.94
-6.955
-6.99
-7.03
-7.075
-7.08
-7.025
-6.955
-6.905
-6.845
-6.805
-6.795
-6.82
-6.85
-6.88
-6.885
-6.88
-6.885
-6.87
-6.855
-6.84
-6.83
-6.81
-6.815
-6.845
-6.845
-6.845
-6.83
-6.795
-6.77
-6.745
-6.755
-6.805
-6.865
-6.91
-6.93
-6.91
-6.875
-6.895
-6.93
-6.935
-6.935
-6.92
-6.895
-6.895
-6.885
-6.855
-6.85
-6.85
-6.855
-6.89
-6.91
-6.91
-6.915
-6.925
-6.9
-6.905
-6.86
-6.82
-6.82
-6.835
-6.885
-6.945
-6.98
-7.005
-6.98
-6.955
-6.935
-6.9
-6.89
-6.89
-6.895
-6.915
-6.93
-6.91
-6.865
-6.835
-6.835
-6.86
-6.91
-6.92
-6.905
-6.88
-6.845
-6.82
-6.815
-6.805
-6.75
-6.705
-6.685
-6.685
-6.72
-6.75
-6.765
-6.735
-6.745
-6.765
-6.76
-6.74
-6.695
-6.64
-6.6
-6.575
-6.575
-6.62
-6.66
-6.685
-6.71
-6.71
-6.69
-6.71
-6.71
-6.715
-6.745
-6.745
-6.68
-6.645
-6.625
-6.615
-6.61
-6.685
-6.76
-6.87
-6.905
-6.91
-6.85
-6.795
-6.775
-6.79
-6.825
-6.835
-6.835
-6.82
-6.825
-6.83
-6.85
-6.86
-6.84
-6.805
-6.77
-6.76
-6.765
-6.82
-6.895
-6.955
-7.0
-7.0
-6.945
-6.88
-6.82
-6.78
-6.76
-6.775
-6.83
-6.9
-6.975
-6.995
-6.97
-6.875
-6.72
-6.55
-6.4
-6.305
-6.295
-6.345
-6.385
-6.35
-6.23
-6.04
-5.835
-5.705
-5.685
-5.825
-6.115
-6.51
-6.945
-7.29
-7.5
-7.585
-7.59
-7.625
-7.67
-7.745
-7.785
-7.79
-7.79
-7.79
-7.805
-7.81
-7.87
-7.885
-7.87
-7.815
-7.73
-7.645
-7.55
-7.425
-7.27
-7.155
-7.05
-6.955
-6.89
-6.865
-6.86
-6.855
-6.855
-6.855
-6.835
-6.81
-6.79
-6.775
-6.78
-6.78
-6.805
-6.78
-6.75
-6.77
-6.75
-6.755
-6.745
-6.745
-6.76
-6.78
-6.805
-6.81
-6.8
-6.82
-6.815
-6.84
-6.82
-6.81
-6.83
-6.845
-6.865
-6.885
-6.93
-6.99
-7.02
-7.045
-7.035
-7.0
-6.975
-6.97
-6.955
-6.955
-6.97
-6.96
-6.975
-6.99
-6.985
-6.99
-6.99
-6.95
-6.945
-6.93
-6.94
-6.96
-6.97
-6.955
-6.905
-6.885
-6.86
-6.83
-6.81
-6.78
-6.79
-6.8
-6.805
-6.795
-6.785
-6.775
-6.75
-6.735
-6.725
-6.74
-6.735
-6.705
-6.7
-6.725
-6.75
-6.775
-6.785
-6.775
-6.76
-6.76
-6.745
-6.735
-6.745
-6.735
-6.7
-6.695
-6.695
-6.705
-6.715
-6.725
-6.725
-6.72
-6.715
-6.71
-6.695
-6.68
-6.695
-6.685
-6.685
-6.7
-6.69
-6.67
-6.685
-6.695
-6.7
-6.705
-6.72
-6.735
-6.76
-6.77
-6.79
-6.775
-6.75
-6.765
-6.725
-6.72
-6.74
-6.745
-6.755
-6.775
-6.79
-6.795
-6.795
-6.81
-6.805
-6.805
-6.785
-6.785
-6.8
-6.81
-6.81
-6.795
-6.8
-6.805
-6.81
-6.82
-6.82
-6.825
-6.84
-6.825
-6.805
-6.8
-6.75
-6.73
-6.685
-6.67
-6.66
-6.66
-6.695
-6.72
-6.725
-6.755
-6.735
-6.7
-6.67
-6.64
-6.635
-6.65
-6.68
-6.72
-6.75
-6.78
-6.795
-6.785
-6.76
-6.735
-6.685
-6.66
-6.645
-6.67
-6.69
-6.73
-6.77
-6.79
-6.805
-6.785
-6.78
-6.775
-6.785
-6.775
-6.79
-6.835
-6.85
-6.855
-6.865
-6.85
-6.855
-6.825
-6.815
-6.805
-6.815
-6.805
-6.815
-6.795
-6.785
-6.79
-6.805
-6.845
-6.865
-6.905
-6.925
-6.91
-6.9
-6.885
-6.89
-6.895
-6.9
-6.92
-6.93
-6.935
-6.91
-6.885
-6.815
-6.725
-6.635
-6.56
-6.535
-6.525
-6.51
-6.45
-6.325
-6.105
-5.865
-5.685
-5.615
-5.73
-6.015
-6.4
-6.805
-7.13
-7.35
-7.455
-7.505
-7.555
-7.59
-7.655
-7.695
-7.725
-7.725
-7.7
-7.725
-7.735
-7.73
-7.715
-7.685
-7.62
-7.545
-7.45
-7.33
-7.185
-7.04
-6.93
-6.825
-6.775
-6.74
-6.755
-6.76
-6.76
-6.755
-6.75
-6.75
-6.72
-6.705
-6.695
-6.695
-6.725
-6.725
-6.755
-6.765
-6.765
-6.74
-6.75
-6.755
-6.77
-6.8
-6.81
-6.805
-6.82
-6.795
-6.78
-6.765
-6.74
-6.745
-6.77
-6.835
-6.865
-6.89
-6.87
-6.825
-6.775
-6.755
-6.765
-6.805
-6.81
-6.845
-6.855
-6.88
-6.89
-6.875
-6.845
-6.785
-6.755
-6.785
-6.83
-6.885
-6.91
-6.895
-6.84
-6.785
-6.775
-6.745
-6.74
-6.73
-6.705
-6.69
-6.7
-6.735
-6.775
-6.755
-6.735
-6.7
-6.66
-6.68
-6.685
-6.7
-6.735
-6.76
-6.765
-6.755
-6.72
-6.685
-6.66
-6.615
-6.605
-6.58
-6.55
-6.51
-6.51
-6.525
-6.555
-6.53
-6.48
-6.44
-6.385
-6.395
-6.46
-6.515
-6.58
-6.61
-6.6
-6.59
-6.59
-6.605
-6.625
-6.625
-6.61
-6.585
-6.545
-6.5
-6.525
-6.565
-6.625
-6.695
-6.72
-6.755
-6.78
-6.79
-6.79
-6.8
-6.82
-6.84
-6.86
-6.885
-6.875
-6.845
-6.805
-6.775
-6.76
-6.77
-6.8
-6.825
-6.855
-6.88
-6.89
-6.855
-6.77
-6.695
-6.625
-6.615
-6.65
-6.695
-6.73
-6.755
-6.745
-6.715
-6.645
-6.59
-6.52
-6.5
-6.51
-6.545
-6.595
-6.63
-6.67
-6.68
-6.67
-6.665
-6.66
-6.645
-6.62
-6.605
-6.575
-6.53
-6.465
-6.41
-6.355
-6.35
-6.385
-6.42
-6.445
-6.375
-6.2
-5.96
-5.705
-5.59
-5.645
-5.94
-6.39
-6.815
-7.145
-7.31
-7.35
-7.325
-7.31
-7.325
-7.355
-7.4
-7.415
-7.39
-7.355
-7.295
-7.25
-7.185
-7.13
-7.075
-7.025
-6.99
-6.925
-6.825
-6.695
-6.575
-6.475
-6.42
-6.4
-6.39
-6.355
-6.34
-6.32
-6.305
-6.28
-6.24
-6.225
-6.195
-6.19
-6.18
-6.17
-6.195
-6.26
-6.34
-6.41
-6.465
-6.465
-6.44
-6.39
-6.35
-6.325
-6.335
-6.365
-6.4
-6.42
-6.385
-6.39
-6.42
-6.455
-6.495
-6.54
-6.535
-6.545
-6.555
-6.555
-6.525
-6.505
-6.47
-6.45
-6.42
-6.395
-6.37
-6.395
-6.39
-6.4
-6.4
-6.38
-6.34
-6.285
-6.27
-6.255
-6.255
-6.255
-6.245
-6.24
-6.215
-6.18
-6.14
-6.095
-6.015
-5.95
-5.86
-5.785
-5.705
-5.63
-5.56
-5.495
-5.44
-5.385
-5.3
-5.205
-5.11
-5.02
-4.99
-4.955
-4.93
-4.89
-4.88
-4.87
-4.85
-4.83
-4.795
-4.76
-4.71
-4.67
-4.645
-4.625
-4.63
-4.62
-4.64
-4.685
-4.725
-4.755
-4.755
-4.71
-4.65
-4.6
-4.56
-4.57
-4.565
-4.55
-4.54
-4.54
-4.535
-4.51
-4.48
-4.435
-4.415
-4.38
-4.37
-4.37
-4.37
-4.385
-4.39
-4.375
-4.385
-4.37
-4.345
-4.32
-4.305
-4.275
-4.24
-4.23
-4.26
-4.24
-4.235
-4.24
-4.245
-4.245
-4.245
-4.23
-4.22
-4.22
-4.2
-4.185
-4.17
-4.16
-4.165
-4.185
-4.205
-4.215
-4.195
-4.18
-4.145
-4.145
-4.14
-4.155
-4.17
-4.2
-4.215
-4.215
-4.2
-4.2
-4.165
-4.16
-4.135
-4.11
-4.1
-4.115
-4.13
-4.155
-4.17
-4.16
-4.165
-4.17
-4.16
-4.14
-4.115
-4.1
-4.09
-4.07
-4.085
-4.09
-4.085
-4.105
-4.12
-4.135
-4.115
-4.125
-4.12
-4.085
-4.105
-4.095
-4.09
-4.125
-4.135
-4.155
-4.155
-4.125
-4.085
-4.045
-4.045
-4.05
-4.045
-4.035
-4.025
-4.01
-4.035
-4.04
-4.025
-4.02
-4.01
-4.0
-3.97
-3.945
-3.935
-3.94
-3.98
-4.02
-4.06
-4.08
-4.105
-4.095
-4.055
-4.035
-3.995
-4.005
-4.02
-4.01
-4.0
-4.02
-4.05
-4.08
-4.1
-4.13
-4.11
-4.1
-4.105
-4.13
-4.17
-4.185
-4.21
-4.24
-4.28
-4.315
-4.325
-4.33
-4.295
-4.26
-4.25
-4.28
-4.325
-4.37
-4.385
-4.365
-4.335
-4.315
-4.325
-4.34
-4.37
-4.375
-4.375
-4.365
-4.375
-4.375
-4.37
-4.4
-4.445
-4.47
-4.495
-4.475
-4.395
-4.3
-4.17
-4.05
-3.985
-4.01
-4.08
-4.145
-4.125
-4.08
-3.97
-3.835
-3.71
-3.62
-3.615
-3.765
-4.02
-4.34
-4.655
-4.89
-5.05
-5.15
-5.245
-5.335
-5.38
-5.45
-5.505
-5.54
-5.555
-5.55
-5.55
-5.555
-5.585
-5.645
-5.685
-5.705
-5.645
-5.56
-5.435
-5.315
-5.165
-5.06
-4.995
-4.925
-4.89
-4.885
-4.905
-4.9
-4.89
-4.9
-4.915
-4.925
-4.925
-4.92
-4.905
-4.91
-4.93
-4.945
-4.955
-4.955
-4.955
-4.98
-4.98
-4.995
-4.99
-4.985
-4.975
-4.99
-5.05
-5.105
-5.125
-5.13
-5.145
-5.135
-5.145
-5.13
-5.125
-5.1
-5.095
-5.09
-5.12
-5.15
-5.17
-5.175
-5.135
-5.11
-5.085
-5.09
-5.12
-5.155
-5.155
-5.19
-5.23
-5.255
-5.23
-5.215
-5.205
-5.155
-5.145
-5.12
-5.08
-5.055
-5.05
-5.08
-5.135
-5.185
-5.23
-5.205
-5.17
-5.105
-5.05
-5.03
-5.025
-5.04
-5.06
-5.08
-5.095
-5.085
-5.08
-5.08
-5.055
-5.075
-5.12
-5.12
-5.13
-5.105
-5.085
-5.08
-5.105
-5.12
-5.15
-5.145
-5.13
-5.115
-5.1
-5.145
-5.18
-5.205
-5.225
-5.255
-5.235
-5.22
-5.23
-5.21
-5.19
-5.19
-5.175
-5.17
-5.15
-5.155
-5.18
-5.195
-5.255
-5.29
-5.33
-5.345
-5.345
-5.335
-5.31
-5.29
-5.275
-5.275
-5.275
-5.28
-5.32
-5.33
-5.315
-5.28
-5.305
-5.325
-5.38
-5.445
-5.46
-5.42
-5.375
-5.36
-5.37
-5.385
-5.415
-5.415
-5.405
-5.395
-5.36
-5.35
-5.345
-5.35
-5.355
-5.36
-5.37
-5.38
-5.41
-5.43
-5.415
-5.42
-5.375
-5.34
-5.31
-5.28
-5.285
-5.27
-5.275
-5.24
-5.22
-5.225
-5.235
-5.27
-5.285
-5.305
-5.325
-5.335
-5.36
-5.4
-5.41
-5.4
-5.36
-5.345
-5.325
-5.315
-5.295
-5.29
-5.28
-5.285
-5.295
-5.31
-5.33
-5.345
-5.37
-5.38
-5.4
-5.4
-5.405
-5.415
-5.41
-5.395
-5.385
-5.355
-5.395
-5.405
-5.435
-5.465
-5.46
-5.45
-5.43
-5.405
-5.39
-5.365
-5.38
-5.4
-5.43
-5.465
-5.485
-5.515
-5.505
-5.485
-5.43
-5.39
-5.41
-5.48
-5.525
-5.54
-5.505
-5.46
-5.4
-5.305
-5.21
-5.145
-5.115
-5.125
-5.15
-5.12
-5.005
-4.845
-4.65
-4.52
-4.55
-4.74
-5.065
-5.46
-5.84
-6.135
-6.33
-6.425
-6.485
-6.52
-6.545
-6.565
-6.58
-6.595
-6.59
-6.615
-6.62
-6.63
-6.615
-6.58
-6.53
-6.475
-6.41
-6.335
-6.23
-6.095
-5.965
-5.81
-5.7
-5.61
-5.57
-5.54
-5.525
-5.5
-5.495
-5.5
-5.54
-5.57
-5.565
-5.56
-5.525
-5.475
-5.45
-5.415
-5.44
-5.435
-5.455
-5.46
-5.465
-5.465
-5.43
-5.44
-5.475
-5.52
-5.555
-5.57
-5.565
-5.545
-5.53
-5.535
-5.535
-5.55
-5.545
-5.545
-5.545
-5.54
-5.555
-5.55
-5.54
-5.54
-5.58
-5.625
-5.645
-5.685
-5.68
-5.645
-5.62
-5.585
-5.565
-5.57
-5.585
-5.585
-5.575
-5.58
-5.54
-5.515
-5.515
-5.52
-5.52
-5.51
-5.48
-5.47
-5.455
-5.44
-5.46
-5.495
-5.53
-5.545
-5.53
-5.5
-5.445
-5.4
-5.4
-5.415
-5.43
-5.435
-5.435
-5.425
-5.43
-5.45
-5.475
-5.485
-5.48
-5.47
-5.45
-5.445
-5.42
-5.395
-5.4
-5.42
-5.455
-5.5
-5.54
-5.535
-5.51
-5.485
-5.475
-5.48
-5.475
-5.475
-5.48
-5.485
-5.48
-5.505
-5.52
-5.545
-5.55
-5.54
-5.525
-5.505
-5.52
-5.55
-5.57
-5.565
-5.585
-5.595
-5.615
-5.59
-5.555
-5.52
-5.485
-5.485
-5.515
-5.565
-5.575
-5.57
-5.57
-5.58
-5.595
-5.6
-5.59
-5.575
-5.56
-5.515
-5.52
-5.515
-5.525
-5.535
-5.555
-5.57
-5.585
-5.595
-5.575
-5.52
-5.455
-5.435
-5.445
-5.5
-5.53
-5.55
-5.53
-5.5
-5.48
-5.47
-5.47
-5.465
-5.445
-5.405
-5.395
-5.385
-5.375
-5.405
-5.435
-5.465
-5.47
-5.48
-5.46
-5.45
-5.47
-5.5
-5.525
-5.535
-5.525
-5.505
-5.485
-5.495
-5.53
-5.535
-5.545
-5.535
-5.515
-5.515
-5.545
-5.57
-5.595
-5.59
-5.58
-5.605
-5.625
-5.645
-5.67
-5.675
-5.66
-5.62
-5.6
-5.605
-5.67
-5.715
-5.73
-5.735
-5.725
-5.71
-5.705
-5.7
-5.705
-5.695
-5.675
-5.64
-5.63
-5.63
-5.66
-5.725
-5.76
-5.74
-5.735
-5.675
-5.57
-5.44
-5.31
-5.22
-5.205
-5.275
-5.385
-5.44
-5.4
-5.25
-5.06
-4.885
-4.83
-4.86
-5.09
-5.5
-6.005
-6.45
-6.75
-6.865
-6.855
-6.83
-6.775
-6.735
-6.7
-6.695
-6.725
-6.745
-6.765
-6.745
-6.675
-6.61
-6.565
-6.59
-6.61
-6.61
-6.48
-6.33
-6.165
-6.0
-5.825
-5.7
-5.605
-5.585
-5.64
-5.735
-5.8
-5.8
-5.785
-5.74
-5.7
-5.685
-5.63
-5.575
-5.55
-5.59
-5.675
-5.765
-5.8
-5.815
-5.805
-5.78
-5.775
-5.725
-5.7
-5.735
-5.785
-5.84
-5.88
-5.845
-5.79
-5.76
-5.745
-5.775
-5.87
-5.93
-5.97
-5.985
-5.965
-5.92
-5.885
-5.805
-5.815
-5.87
-5.945
-5.995
-6.025
-6.015
-5.97
-5.875
-5.825
-5.835
-5.885
-5.945
-5.99
-6.02
-6.005
-5.98
-5.97
-5.985
-6.01
-5.99
-5.965
-5.9
-5.89
-5.94
-5.995
-5.995
-5.935
-5.855
-5.835
-5.885
-5.935
-5.995
-6.04
-6.045
-6.03
-5.985
-5.94
-5.945
-5.935
-5.955
-5.955
-5.985
-5.995
-6.01
-6.025
-6.015
-6.015
-6.0
-6.0
-6.05
-6.09
-6.125
-6.14
-6.115
-6.115
-6.12
-6.115
-6.105
-6.1
-6.05
-6.0
-5.98
-5.995
-6.015
-6.04
-6.095
-6.14
-6.155
-6.145
-6.14
-6.14
-6.155
-6.155
-6.145
-6.125
-6.11
-6.115
-6.105
-6.09
-6.1
-6.155
-6.195
-6.215
-6.22
-6.21
-6.21
-6.19
-6.17
-6.135
-6.125
-6.17
-6.195
-6.175
-6.155
-6.15
-6.16
-6.165
-6.165
-6.145
-6.11
-6.06
-6.015
-6.01
-6.03
-6.06
-6.055
-6.04
-6.015
-5.985
-5.965
-5.965
-5.94
-5.97
-6.01
-6.035
-6.06
-6.045
-6.025
-5.985
-5.99
-6.015
-6.02
-5.985
-5.99
-6.005
-6.035
-6.07
-6.075
-6.055
-5.99
-5.945
-5.94
-5.945
-5.965
-6.01
-6.06
-6.09
-6.105
-6.08
-6.06
-6.03
-6.025
-6.075
-6.15
-6.175
-6.17
-6.16
-6.125
-6.085
-6.07
-6.065
-6.06
-6.075
-6.11
-6.135
-6.16
-6.185
-6.19
-6.2
-6.17
-6.12
-6.085
-6.09
-6.115
-6.14
-6.165
-6.18
-6.175
-6.155
-6.14
-6.145
-6.19
-6.22
-6.2
-6.11
-6.015
-5.9
-5.79
-5.745
-5.755
-5.795
-5.855
-5.88
-5.845
-5.735
-5.515
-5.36
-5.26
-5.32
-5.54
-5.93
-6.335
-6.69
-6.89
-6.975
-6.985
-7.005
-6.995
-7.015
-7.035
-7.07
-7.105
-7.125
-7.105
-7.095
-7.055
-7.02
-6.995
-6.95
-6.945
-6.925
-6.86
-6.75
-6.625
-6.49
-6.35
-6.225
-6.115
-6.055
-6.015
-6.015
-6.01
-6.025
-6.035
-6.04
-6.03
-6.035
-6.005
-5.985
-5.96
-5.915
-5.915
-5.91
-5.915
-5.915
-5.925
-5.965
-5.995
-5.995
-5.995
-5.98
-5.985
-6.015
-6.04
-6.025
-6.02
-5.99
-5.99
-5.975
-5.975
-5.98
-5.995
-6.025
-6.04
-6.035
-6.065
-6.08
-6.08
-6.065
-6.07
-6.09
-6.125
-6.14
-6.155
-6.13
-6.1
-6.075
-6.07
-6.075
-6.1
-6.135
-6.13
-6.14
-6.1
-6.08
-6.05
-6.02
-6.02
-6.015
-6.025
-6.02
-6.0
-5.99
-5.985
-5.995
-5.975
-5.98
-5.955
-5.97
-5.995
-6.02
-6.005
-5.99
-5.96
-5.945
-5.95
-5.98
-6.01
-6.04
-6.07
-6.055
-6.04
-5.995
-5.985
-5.995
-6.025
-6.065
-6.085
-6.07
-6.06
-6.055
-6.035
-6.015
-6.015
-6.005
-6.04
-6.04
-6.035
-6.035
-6.045
-6.075
-6.125
-6.15
-6.145
-6.115
-6.1
-6.08
-6.055
-6.065
-6.085
-6.1
-6.11
-6.105
-6.105
-6.12
-6.145
-6.165
-6.145
-6.15
-6.145
-6.145
-6.135
-6.115
-6.12
-6.115
-6.12
-6.16
-6.175
-6.2
-6.19
-6.175
-6.145
-6.135
-6.13
-6.155
-6.175
-6.195
-6.22
-6.23
-6.2
-6.195
-6.195
-6.21
-6.24
-6.225
-6.22
-6.225
-6.205
-6.175
-6.165
-6.175
-6.185
-6.19
-6.17
-6.16
-6.125
-6.13
-6.12
-6.125
-6.145
-6.16
-6.15
-6.115
-6.1
-6.12
-6.135
-6.14
-6.145
-6.165
-6.2
-6.23
-6.27
-6.27
-6.255
-6.235
-6.22
-6.205
-6.195
-6.205
-6.235
-6.265
-6.27
-6.27
-6.28
-6.305
-6.325
-6.365
-6.415
-6.41
-6.405
-6.375
-6.355
-6.355
-6.35
-6.38
-6.425
-6.455
-6.48
-6.465
-6.42
-6.405
-6.39
-6.4
-6.405
-6.385
-6.36
-6.35
-6.37
-6.42
-6.49
-6.51
-6.495
-6.46
-6.435
-6.44
-6.425
-6.44
-6.49
-6.53
-6.545
-6.535
-6.48
-6.41
-6.305
-6.2
-6.145
-6.11
-6.145
-6.225
-6.25
-6.22
-6.13
-5.995
-5.825
-5.725
-5.755
-6.005
-6.46
-7.01
-7.495
-7.835
-7.985
-7.975
-7.92
-7.86
-7.81
-7.805
-7.785
-7.76
-7.72
-7.66
-7.66
-7.665
-7.69
-7.71
-7.71
-7.635
-7.525
-7.34
-7.16
-7.005
-6.905
-6.835
-6.775
-6.74
-6.75
-6.77
-6.81
-6.82
-6.81
-6.78
-6.75
-6.715
-6.665
-6.65
-6.62
-6.635
-6.645
-6.64
-6.64
-6.66
-6.685
-6.72
-6.73
-6.725
-6.71
-6.71
-6.71
-6.71
-6.72
-6.735
-6.77
-6.795
-6.8
-6.795
-6.78
-6.795
-6.77
-6.785
-6.79
-6.81
-6.835
-6.84
-6.84
-6.83
-6.8
-6.775
-6.74
-6.765
-6.875
-6.97
-6.975
-6.94
-6.91
-6.855
-6.835
-6.82
-6.84
-6.86
-6.865
-6.85
-6.815
-6.79
-6.76
-6.735
-6.73
-6.735
-6.75
-6.715
-6.71
-6.725
-6.705
-6.67
-6.67
-6.71
-6.73
-6.785
-6.79
-6.78
-6.75
-6.745
-6.75
-6.725
-6.725
-6.74
-6.755
-6.775
-6.785
-6.8
-6.8
-6.795
-6.79
-6.795
-6.79
-6.81
-6.795
-6.78
-6.77
-6.745
-6.735
-6.755
-6.775
-6.79
-6.835
-6.845
-6.835
-6.825
-6.8
-6.785
-6.795
-6.82
-6.835
-6.815
-6.81
-6.815
-6.86
-6.915
-6.945
-6.985
-7.0
-6.985
-6.975
-6.955
-6.945
-6.975
-7.02
-7.035
-7.055
-7.06
-7.065
-7.06
-7.045
-7.04
-7.035
-7.025
-7.02
-7.025
-7.04
-7.07
-7.1
-7.11
-7.085
-7.075
-7.115
-7.135
-7.165
-7.16
-7.14
-7.08
-7.025
-6.97
-6.985
-7.035
-7.085
-7.135
-7.13
-7.085
-7.02
-6.985
-6.98
-6.995
-7.01
-7.0
-6.99
-6.985
-7.0
-7.015
-7.025
-7.045
-7.06
-7.065
-7.055
-7.055
-7.045
-7.035
-7.06
-7.06
-7.055
-7.07
-7.095
-7.09
-7.07
-7.045
-7.04
-7.075
-7.095
-7.115
-7.135
-7.175
-7.235
-7.29
-7.32
-7.315
-7.28
-7.235
-7.205
-7.21
-7.2
-7.185
-7.15
-7.14
-7.175
-7.21
-7.265
-7.275
-7.255
-7.22
-7.2
-7.17
-7.165
-7.175
-7.185
-7.225
-7.27
-7.305
-7.355
-7.355
-7.295
-7.2
-7.035
-6.885
-6.755
-6.62
-6.55
-6.555
-6.575
-6.625
-6.66
-6.635
-6.55
-6.41
-6.275
-6.205
-6.255
-6.46
-6.85
-7.32
-7.785
-8.13
-8.315
-8.345
-8.295
-8.245
-8.27
-8.335
-8.395
-8.41
-8.405
-8.395
-8.36
-8.35
-8.375
-8.395
-8.4
-8.34
-8.24
-8.13
-7.985
-7.81
-7.665
-7.525
-7.415
-7.34
-7.28
-7.25
-7.25
-7.26
-7.28
-7.28
-7.295
-7.265
-7.27
-7.265
-7.275
-7.28
-7.25
-7.185
-7.155
-7.135
-7.145
-7.195
-7.255
-7.305
-7.32
-7.31
-7.29
-7.305
-7.305
-7.32
-7.29
-7.27
-7.25
-7.285
-7.34
-7.345
-7.33
-7.295
-7.28
-7.31
-7.365
-7.405
-7.415
-7.415
-7.41
-7.425
-7.43
-7.445
-7.465
-7.46
-7.435
-7.435
-7.41
-7.4
-7.39
-7.38
-7.37
-7.385
-7.385
-7.34
-7.305
-7.31
-7.36
-7.38
-7.335
-7.28
-7.245
-7.245
-7.245
-7.26
-7.275
-7.275
-7.265
-7.23
-7.19
-7.155
-7.135
-7.165
-7.195
-7.23
-7.225
-7.22
-7.185
-7.145
-7.12
-7.15
-7.19
-7.23
-7.245
-7.235
-7.23
-7.215
-7.225
-7.21
-7.195
-7.175
-7.175
-7.19
-7.21
-7.235
-7.275
-7.29
-7.285
-7.265
-7.21
-7.18
-7.145
-7.16
-7.195
-7.265
-7.335
-7.345
-7.325
-7.26
-7.215
-7.22
-7.22
-7.22
-7.225
-7.25
-7.27
-7.28
-7.29
-7.295
-7.305
-7.305
-7.27
-7.23
-7.2
-7.21
-7.205
-7.165
-7.145
-7.14
-7.14
-7.195
-7.225
-7.24
-7.26
-7.3
-7.345
-7.35
-7.315
-7.255
-7.215
-7.175
-7.155
-7.155
-7.14
-7.12
-7.095
-7.08
-7.085
-7.09
-7.065
-7.05
-7.06
-7.095
-7.105
-7.1
-7.12
-7.085
-7.08
-7.07
-7.09
-7.155
-7.19
-7.18
-7.15
-7.125
-7.125
-7.155
-7.19
-7.19
-7.185
-7.16
-7.16
-7.17
-7.19
-7.2
-7.21
-7.18
-7.195
-7.225
-7.315
-7.375
-7.415
-7.395
-7.36
-7.31
-7.255
-7.235
-7.215
-7.23
-7.285
-7.345
-7.365
-7.35
-7.325
-7.32
-7.305
-7.315
-7.33
-7.33
-7.305
-7.29
-7.28
-7.305
-7.305
-7.325
-7.33
-7.315
-7.27
-7.21
-7.13
-7.03
-6.93
-6.8
-6.73
-6.715
-6.735
-6.765
-6.735
-6.61
-6.43
-6.255
-6.16
-6.285
-6.625
-7.11
-7.625
-8.065
-8.365
-8.53
-8.57
-8.54
-8.5
-8.485
-8.505
-8.51
-8.51
-8.495
-8.48
-8.51
-8.515
-8.485
-8.43
-8.31
-8.15
-8.005
-7.85
-7.695
-7.595
-7.485
-7.42
-7.365
-7.37
-7.385
-7.365
-7.32
-7.315
-7.355
-7.365
-7.37
-7.355
-7.295
-7.255
-7.24
-7.235
-7.27
-7.295
-7.33
-7.33
-7.31
-7.3
-7.265
-7.27
-7.27
-7.28
-7.29
-7.315
-7.34
-7.37
-7.385
-7.395
-7.355
-7.31
-7.31
-7.335
-7.395
-7.44
-7.495
-7.495
-7.475
-7.45
-7.425
-7.375
-7.37
-7.36
-7.39
-7.44
-7.465
-7.465
-7.45
-7.445
-7.45
-7.435
-7.43
-7.39
-7.38
-7.36
-7.355
-7.33
-7.32
-7.295
-7.305
-7.29
-7.285
-7.265
-7.265
-7.235
-7.225
-7.205
-7.185
-7.195
-7.22
-7.24
-7.26
-7.275
-7.255
-7.255
-7.23
-7.23
-7.225
-7.225
-7.21
-7.23
-7.26
-7.26
-7.275
-7.29
-7.28
-7.28
-7.265
-7.26
-7.26
-7.265
-7.255
-7.275
-7.29
-7.275
-7.28
-7.3
-7.28
-7.275
-7.27
-7.255
-7.265
-7.27
-7.275
-7.28
-7.3
-7.28
-7.27
-7.255
-7.27
-7.3
-7.325
-7.32
-7.325
-7.305
-7.28
-7.26
-7.23
-7.26
-7.295
-7.32
-7.305
-7.305
-7.28
-7.255
-7.26
-7.24
-7.26
-7.27
-7.29
-7.27
-7.26
-7.24
-7.225
-7.22
-7.235
-7.255
-7.285
-7.29
-7.285
-7.265
-7.265
-7.235
-7.205
-7.19
-7.165
-7.125
-7.105
-7.085
-7.085
-7.075
-7.07
-7.075
-7.065
-7.08
-7.09
-7.105
-7.125
-7.155
-7.175
-7.17
-7.165
-7.16
-7.16
-7.145
-7.12
-7.09
-7.085
-7.095
-7.12
-7.175
-7.22
-7.245
-7.27
-7.26
-7.265
-7.265
-7.28
-7.28
-7.315
-7.31
-7.29
-7.28
-7.265
-7.28
-7.295
-7.305
-7.315
-7.315
-7.33
-7.32
-7.33
-7.315
-7.295
-7.3
-7.3
-7.315
-7.305
-7.3
-7.295
-7.305
-7.32
-7.34
-7.345
-7.34
-7.325
-7.31
-7.27
-7.2
-7.14
-6.995
-6.85
-6.745
-6.695
-6.69
-6.76
-6.81
-6.75
-6.59
-6.38
-6.185
-6.08
-6.155
-6.435
-6.92
-7.455
-7.905
-8.225
-8.41
-8.505
-8.495
-8.5
-8.485
-8.515
-8.55
-8.575
-8.585
-8.585
-8.57
-8.54
-8.48
-8.425
-8.39
-8.35
-8.295
-8.23
-8.13
-7.98
-7.81
-7.67
-7.55
-7.46
-7.39
-7.32
-7.285
-7.27
-7.25
-7.245
-7.21
-7.2
-7.175
-7.175
-7.17
-7.175
-7.18
-7.17
-7.16
-7.12
-7.115
-7.15
-7.165
-7.19
-7.215
-7.215
-7.23
-7.23
-7.24
-7.22
-7.2
-7.195
-7.185
-7.19
-7.2
-7.215
-7.235
-7.26
-7.29
-7.325
-7.295
-7.265
-7.26
-7.26
-7.265
-7.265
-7.265
-7.26
-7.295
-7.31
-7.335
-7.31
-7.295
-7.27
-7.235
-7.215
-7.19
-7.215
-7.195
-7.205
-7.18
-7.15
-7.14
-7.095
-7.085
-7.055
-7.03
-6.99
-6.945
-6.91
-6.87
-6.845
-6.845
-6.88
-6.94
-7.0
-7.005
-7.01
-7.02
-7.025
-7.01
-7.015
-7.015
-7.02
-6.995
-6.96
-6.98
-7.01
-7.055
-7.08
-7.105
-7.095
-7.08
-7.085
-7.07
-7.04
-7.045
-7.065
-7.095
-7.12
-7.13
-7.125
-7.1
-7.105
-7.08
-7.055
-7.06
-7.075
-7.125
-7.135
-7.15
-7.14
-7.14
-7.14
-7.125
-7.115
-7.09
-7.085
-7.1
-7.14
-7.185
-7.195
-7.19
-7.185
-7.17
-7.145
-7.135
-7.12
-7.105
-7.115
-7.11
-7.1
-7.1
-7.12
-7.09
-7.09
-7.075
-7.1
-7.13
-7.145
-7.125
-7.1
-7.095
-7.115
-7.13
-7.145
-7.125
-7.11
-7.07
-7.0
-6.915
-6.815
-6.735
-6.67
-6.65
-6.67
-6.64
-6.53
-6.39
-6.19
-6.025
-5.94
-6.025
-6.29
-6.69
-7.145
-7.55
-7.85
-8.015
-8.11
-8.155
-8.19
-8.235
-8.27
-8.285
-8.265
-8.275
-8.28
-8.29
-8.25
-8.2
-8.135
-8.07
-7.97
-7.875
-7.725
-7.575
-7.44
-7.285
-7.17
-7.1
-7.045
-7.03
-7.045
-7.06
-7.07
-7.08
-7.065
-7.02
-6.99
-6.97
-6.95
-6.965
-6.975
-7.015
-7.04
-7.06
-7.045
-7.035
-7.02
-7.035
-7.025
-7.03
-7.055
-7.08
-7.085
-7.1
-7.075
-7.08
-7.085
-7.08
-7.11
-7.11
-7.1
-7.09
-7.11
-7.15
-7.185
-7.225
-7.235
-7.24
-7.22
-7.205
-7.185
-7.165
-7.15
-7.135
-7.13
-7.135
-7.165
-7.18
-7.22
-7.2
-7.18
-7.165
-7.18
-7.145
-7.105
-7.07
-7.03
-7.04
-7.045
-7.05
-7.075
-7.095
-7.095
-7.06
-7.035
-7.0
-7.015
-7.005
-7.015
-7.02
-7.005
-6.995
-6.955
-6.955
-6.965
-6.975
-7.0
-7.025
-7.035
-7.03
-7.025
-7.015
-6.995
-6.98
-6.98
-6.965
-6.985
-7.005
-7.03
-7.035
-7.05
-7.04
-7.04
-7.015
-7.0
-7.0
-7.015
-7.015
-7.05
-7.06
-7.04
-7.045
-7.02
-6.995
-6.985
-7.005
-7.03
-7.065
-7.075
-7.085
-7.075
-7.05
-7.03
-6.995
-6.995
-7.01
-7.03
-7.035
-7.06
-7.05
-7.06
-7.06
-7.07
-7.045
-7.035
-7.005
-6.995
-7.005
-7.03
-7.045
-7.065
-7.065
-7.075
-7.07
-7.075
-7.07
-7.045
-7.01
-7.015
-7.02
-7.05
-7.08
-7.085
-7.075
-7.075
-7.075
-7.05
-7.045
-7.04
-7.025
-7.02
-7.02
-7.015
-7.03
-7.05
-7.09
-7.11
-7.11
-7.12
-7.11
-7.075
-7.05
-7.05
-7.035
-7.035
-7.04
-7.055
-7.05
-7.06
-7.075
-7.075
-7.075
-7.05
-7.03
-7.0
-6.965
-6.935
-6.95
-6.96
-6.965
-6.965
-6.96
-6.965
-6.98
-6.97
-6.955
-6.94
-6.935
-6.905
-6.905
-6.91
-6.925
-6.945
-6.98
-7.005
-7.01
-7.01
-6.995
-6.985
-6.965
-6.95
-6.94
-6.925
-6.89
-6.905
-6.96
-7.06
-7.13
-7.165
-7.155
-7.145
-7.11
-7.105
-7.14
-7.165
-7.18
-7.205
-7.23
-7.225
-7.23
-7.2
-7.17
-7.165
-7.165
-7.165
-7.165
-7.18
-7.2
-7.205
-7.23
-7.24
-7.23
-7.22
-7.21
-7.25
-7.26
-7.28
-7.265
-7.275
-7.25
-7.18
-7.075
-6.975
-6.85
-6.765
-6.73
-6.74
-6.745
-6.71
-6.585
-6.395
-6.2
-6.07
-6.12
-6.36
-6.77
-7.245
-7.68
-7.945
-8.08
-8.145
-8.22
-8.305
-8.415
-8.53
-8.585
-8.6
-8.57
-8.53
-8.465
-8.43
-8.38
-8.32
-8.255
-8.155
-8.02
-7.88
-7.705
-7.575
-7.445
-7.355
-7.305
-7.285
-7.285
-7.265
-7.25
-7.225
-7.225
-7.23
-7.23
-7.215
-7.22
-7.225
-7.24
-7.255
-7.255
-7.24
-7.225
-7.22
-7.23
-7.25
-7.255
-7.275
-7.295
-7.29
-7.285
-7.28
-7.27
-7.275
-7.27
-7.275
-7.295
-7.32
-7.31
-7.31
-7.32
-7.32
-7.32
-7.355
-7.385
-7.43
-7.42
-7.415
-7.42
-7.41
-7.38
-7.38
-7.375
-7.365
-7.355
-7.35
-7.33
-7.325
-7.32
-7.33
-7.34
-7.34
-7.345
-7.355
-7.34
-7.32
-7.285
-7.255
-7.21
-7.18
-7.16
-7.15
-7.165
-7.165
-7.175
-7.19
-7.205
-7.19
-7.165
-7.115
-7.115
-7.105
-7.11
-7.12
-7.12
-7.145
-7.16
-7.175
-7.2
-7.175
-7.155
-7.15
-7.145
-7.15
-7.165
-7.145
-7.155
-7.165
-7.17
-7.175
-7.17
-7.16
-7.145
-7.13
-7.14
-7.175
-7.215
-7.255
-7.27
-7.26
-7.25
-7.23
-7.205
-7.2
-7.195
-7.185
-7.195
-7.2
-7.195
-7.235
-7.275
-7.285
-7.285
-7.285
-7.27
-7.26
-7.255
-7.25
-7.24
-7.235
-7.23
-7.205
-7.205
-7.225
-7.245
-7.27
-7.27
-7.235
-7.225
-7.265
-7.28
-7.315
-7.335
-7.33
-7.32
-7.29
-7.275
-7.27
-7.245
-7.24
-7.215
-7.205
-7.195
-7.185
-7.18
-7.17
-7.17
-7.16
-7.165
-7.15
-7.145
-7.12
-7.095
-7.07
-7.075
-7.065
-7.075
-7.095
-7.095
-7.145
-7.17
-7.19
-7.19
-7.195
-7.21
-7.225
-7.195
-7.165
-7.14
-7.1
-7.135
-7.135
-7.165
-7.19
-7.225
-7.245
-7.245
-7.245
-7.255
-7.25
-7.28
-7.335
-7.32
-7.35
-7.335
-7.335
-7.33
-7.3
-7.28
-7.29
-7.3
-7.295
-7.29
-7.28
-7.285
-7.31
-7.34
-7.4
-7.39
-7.39
-7.38
-7.36
-7.34
-7.34
-7.355
-7.355
-7.385
-7.38
-7.33
-7.255
-7.14
-7.015
-6.905
-6.84
-6.825
-6.845
-6.85
-6.775
-6.635
-6.425
-6.205
-6.08
-6.065
-6.205
-6.54
-6.985
-7.48
-7.905
-8.2
-8.33
-8.4
-8.41
-8.45
-8.53
-8.6
-8.675
-8.735
-8.74
-8.705
-8.685
-8.65
-8.63
-8.605
-8.58
-8.535
-8.465
-8.38
-8.245
-8.075
-7.9
-7.73
-7.615
-7.515
-7.455
-7.425
-7.415
-7.39
-7.4
-7.38
-7.39
-7.365
-7.38
-7.37
-7.35
-7.325
-7.325
-7.34
-7.335
-7.355
-7.365
-7.395
-7.385
-7.385
-7.39
-7.375
-7.35
-7.36
-7.39
-7.4
-7.405
-7.41
-7.41
-7.42
-7.45
-7.47
-7.505
-7.52
-7.525
-7.525
-7.52
-7.505
-7.505
-7.5
-7.5
-7.5
-7.51
-7.485
-7.485
-7.47
-7.46
-7.47
-7.48
-7.49
-7.49
-7.485
-7.485
-7.48
-7.455
-7.43
-7.445
-7.405
-7.355
-7.335
-7.32
-7.325
-7.36
-7.4
-7.41
-7.415
-7.37
-7.305
-7.275
-7.255
-7.27
-7.275
-7.275
-7.27
-7.25
-7.25
-7.28
-7.315
-7.325
-7.315
-7.305
-7.28
-7.245
-7.24
-7.22
-7.24
-7.25
-7.29
-7.31
-7.315
-7.315
-7.29
-7.28
-7.27
-7.275
-7.285
-7.27
-7.285
-7.305
-7.32
-7.35
-7.335
-7.335
-7.325
-7.32
-7.32
-7.3
-7.305
-7.31
-7.32
-7.305
-7.34
-7.355
-7.35
-7.35
-7.325
-7.27
-7.24
-7.255
-7.315
-7.355
-7.405
-7.42
-7.395
-7.375
-7.335
-7.32
-7.34
-7.33
-7.33
-7.325
-7.325
-7.315
-7.3
-7.295
-7.28
-7.29
-7.305
-7.325
-7.32
-7.3
-7.28
-7.255
-7.24
-7.24
-7.245
-7.245
-7.265
-7.25
-7.23
-7.225
-7.21
-7.2
-7.195
-7.18
-7.185
-7.195
-7.17
-7.16
-7.165
-7.16
-7.16
-7.17
-7.185
-7.18
-7.21
-7.205
-7.215
-7.225
-7.215
-7.21
-7.21
-7.185
-7.185
-7.165
-7.175
-7.18
-7.195
-7.215
-7.215
-7.24
-7.28
-7.325
-7.375
-7.395
-7.39
-7.4
-7.385
-7.38
-7.37
-7.365
-7.37
-7.345
-7.35
-7.345
-7.34
-7.35
-7.35
-7.34
-7.34
-7.365
-7.38
-7.39
-7.395
-7.395
-7.405
-7.395
-7.39
-7.385
-7.415
-7.45
-7.475
-7.495
-7.41
-7.325
-7.205
-7.09
-6.95
-6.855
-6.805
-6.81
-6.825
-6.785
-6.725
-6.585
-6.41
-6.225
-6.1
-6.14
-6.37
-6.77
-7.23
-7.63
-7.945
-8.145
-8.245
-8.285
-8.34
-8.38
-8.435
-8.495
-8.52
-8.51
-8.53
-8.52
-8.53
-8.47
-8.42
-8.345
-8.27
-8.2
-8.08
-7.935
-7.77
-7.61
-7.505
-7.415
-7.37
-7.34
-7.33
-7.335
-7.315
-7.325
-7.325
-7.31
-7.31
-7.31
-7.29
-7.28
-7.255
-7.255
-7.23
-7.24
-7.28
-7.305
-7.31
-7.315
-7.295
-7.29
-7.265
-7.28
-7.27
-7.28
-7.29
-7.295
-7.305
-7.33
-7.36
-7.355
-7.355
-7.365
-7.35
-7.355
-7.37
-7.385
-7.38
-7.41
-7.4
-7.4
-7.41
-7.385
-7.395
-7.41
-7.41
-7.405
-7.4
-7.38
-7.39
-7.38
-7.365
-7.375
-7.385
-7.36
-7.375
-7.35
-7.335
-7.335
-7.31
-7.265
-7.225
-7.2
-7.165
-7.14
-7.13
-7.135
-7.135
-7.15
-7.19
-7.21
-7.21
-7.215
-7.195
-7.18
-7.14
-7.115
-7.125
-7.14
-7.145
-7.135
-7.16
-7.16
-7.16
-7.155
-7.15
-7.135
-7.14
-7.13
-7.13
-7.14
-7.155
-7.155
-7.155
-7.14
-7.135
-7.135
-7.13
-7.145
-7.155
-7.145
-7.12
-7.09
-7.09
-7.105
-7.14
-7.18
-7.215
-7.23
-7.24
-7.22
-7.2
-7.175
-7.16
-7.145
-7.15
-7.15
-7.175
-7.19
-7.185
-7.205
-7.195
-7.185
-7.19
-7.2
-7.205
-7.195
-7.195
-7.2
-7.2
-7.19
-7.18
-7.165
-7.175
-7.16
-7.17
-7.165
-7.16
-7.16
-7.17
-7.175
-7.195
-7.205
-7.195
-7.16
-7.13
-7.1
-7.07
-7.065
-7.065
-7.07
-7.075
-7.08
-7.08
-7.055
-7.03
-7.035
-7.015
-6.99
-6.975
-6.96
-6.965
-6.955
-6.93
-6.965
-7.02
-7.085
-7.14
-7.15
-7.14
-7.11
-7.075
-7.05
-7.03
-7.01
-7.015
-6.995
-7.015
-7.06
-7.105
-7.15
-7.15
-7.165
-7.16
-7.165
-7.17
-7.17
-7.18
-7.18
-7.17
-7.175
-7.185
-7.205
-7.25
-7.275
-7.275
-7.27
-7.24
-7.23
-7.225
-7.225
-7.21
-7.235
-7.225
-7.22
-7.215
-7.22
-7.21
-7.215
-7.25
-7.285
-7.295
-7.31
-7.245
-7.16
-7.04
-6.92
-6.82
-6.76
-6.73
-6.745
-6.73
-6.595
-6.42
-6.185
-5.995
-5.91
-5.985
-6.28
-6.695
-7.145
-7.535
-7.795
-7.945
-8.03
-8.08
-8.145
-8.215
-8.31
-8.37
-8.42
-8.41
-8.39
-8.34
-8.33
-8.32
-8.295
-8.295
-8.26
-8.195
-8.09
-7.965
-7.79
-7.615
-7.465
-7.35
-7.255
-7.225
-7.225
-7.245
-7.27
-7.27
-7.26
-7.24
-7.2
-7.165
-7.165
-7.15
-7.175
-7.185
-7.21
-7.225
-7.22
-7.23
-7.235
-7.225
-7.225
-7.215
-7.215
-7.22
-7.22
-7.22
-7.235
-7.245
-7.25
-7.27
-7.29
-7.305
-7.33
-7.35
-7.355
-7.355
-7.345
-7.36
-7.38
-7.38
-7.395
-7.39
-7.385
-7.38
-7.375
-7.365
-7.36
-7.375
-7.385
-7.375
-7.36
-7.34
-7.33
-7.31
-7.32
-7.31
-7.28
-7.265
-7.245
-7.23
-7.21
-7.205
-7.17
-7.17
-7.21
-7.215
-7.21
-7.185
-7.18
-7.175
-7.185
-7.17
-7.145
-7.14
-7.135
-7.145
-7.17
-7.19
-7.19
-7.19
-7.175
-7.21
-7.205
-7.19
-7.17
-7.145
-7.155
-7.175
-7.195
-7.205
-7.195
-7.185
-7.18
-7.18
-7.2
-7.2
-7.215
-7.205
-7.215
-7.21
-7.21
-7.23
-7.24
-7.275
-7.285
-7.28
-7.275
-7.255
-7.27
-7.26
-7.27
-7.265
-7.255
-7.265
-7.265
-7.27
-7.275
-7.27
-7.26
-7.25
-7.25
-7.25
-7.255
-7.26
-7.265
-7.28
-7.28
-7.285
-7.29
-7.265
-7.27
-7.265
-7.25
-7.245
-7.23
-7.24
-7.23
-7.225
-7.205
-7.225
-7.18
-7.175
-7.18
-7.17
-7.16
-7.13
-7.095
-7.105
-7.075
-7.085
-7.105
-7.095
-7.11
-7.11
-7.09
-7.095
-7.11
-7.16
-7.185
-7.21
-7.195
-7.19
-7.2
-7.2
-7.18
-7.17
-7.16
-7.175
-7.2
-7.225
-7.275
-7.265
-7.285
-7.31
-7.325
-7.335
-7.34
-7.355
-7.37
-7.37
-7.375
-7.38
-7.38
-7.37
-7.37
-7.38
-7.395
-7.415
-7.4
-7.395
-7.39
-7.37
-7.37
-7.365
-7.375
-7.395
-7.41
-7.415
-7.435
-7.455
-7.48
-7.485
-7.425
-7.36
-7.23
-7.115
-6.96
-6.87
-6.82
-6.84
-6.875
-6.855
-6.785
-6.62
-6.4
-6.195
-6.075
-6.11
-6.335
-6.72
-7.2
-7.665
-8.025
-8.265
-8.355
-8.385
-8.415
-8.465
-8.535
-8.585
-8.625
-8.635
-8.615
-8.595
-8.58
-8.56
-8.505
-8.455
-8.42
-8.355
-8.275
-8.14
-7.975
-7.81
-7.67
-7.56
-7.51
-7.51
-7.525
-7.54
-7.525
-7.485
-7.455
-7.41
-7.375
-7.37
-7.37
-7.37
-7.375
-7.37
-7.375
-7.38
-7.385
-7.38
-7.37
-7.395
-7.42
-7.43
-7.425
-7.43
-7.435
-7.43
-7.445
-7.445
-7.435
-7.445
-7.45
-7.465
-7.48
-7.51
-7.51
-7.51
-7.52
-7.51
-7.495
-7.485
-7.485
-7.505
-7.52
-7.54
-7.55
-7.555
-7.565
-7.565
-7.575
-7.58
-7.555
-7.51
-7.495
-7.46
-7.45
-7.45
-7.46
-7.465
-7.48
-7.47
-7.455
-7.42
-7.385
-7.335
-7.31
-7.305
-7.315
-7.325
-7.33
-7.335
-7.325
-7.305
-7.3
-7.28
-7.28
-7.28
-7.285
-7.285
-7.275
-7.265
-7.26
-7.255
-7.265
-7.255
-7.245
-7.245
-7.245
-7.26
-7.295
-7.3
-7.29
-7.29
-7.29
-7.275
-7.285
-7.28
-7.295
-7.285
-7.285
-7.295
-7.33
-7.33
-7.34
-7.325
-7.33
-7.32
-7.335
-7.31
-7.295
-7.29
-7.285
-7.325
-7.345
-7.35
-7.345
-7.325
-7.325
-7.31
-7.315
-7.305
-7.31
-7.31
-7.32
-7.325
-7.325
-7.315
-7.31
-7.285
-7.28
-7.285
-7.275
-7.29
-7.315
-7.33
-7.335
-7.33
-7.31
-7.27
-7.255
-7.23
-7.22
-7.22
-7.225
-7.255
-7.285
-7.28
-7.25
-7.21
-7.16
-7.145
-7.125
-7.115
-7.11
-7.105
-7.105
-7.115
-7.105
-7.12
-7.135
-7.145
-7.175
-7.19
-7.195
-7.215
-7.215
-7.195
-7.19
-7.16
-7.135
-7.115
-7.12
-7.145
-7.185
-7.22
-7.235
-7.265
-7.25
-7.235
-7.225
-7.24
-7.255
-7.25
-7.27
-7.275
-7.28
-7.285
-7.28
-7.285
-7.29
-7.3
-7.31
-7.31
-7.315
-7.315
-7.31
-7.315
-7.295
-7.265
-7.255
-7.27
-7.255
-7.26
-7.285
-7.3
-7.325
-7.355
-7.35
-7.34
-7.285
-7.16
-7.04
-6.9
-6.775
-6.71
-6.7
-6.74
-6.735
-6.665
-6.52
-6.305
-6.105
-5.98
-6.025
-6.23
-6.6
-7.055
-7.485
-7.79
-7.97
-8.075
-8.14
-8.185
-8.225
-8.265
-8.29
-8.285
-8.275
-8.25
-8.265
-8.26
-8.28
-8.295
-8.265
-8.225
-8.145
-8.015
-7.855
-7.685
-7.51
-7.39
-7.315
-7.26
-7.235
-7.21
-7.185
-7.165
-7.14
-7.1
-7.09
-7.105
-7.125
-7.18
-7.22
-7.23
-7.235
-7.21
-7.21
-7.195
-7.165
-7.16
-7.155
-7.17
-7.18
-7.195
-7.215
-7.225
-7.235
-7.235
-7.235
-7.235
-7.235
-7.24
-7.235
-7.25
-7.265
-7.28
-7.285
-7.29
-7.31
-7.325
-7.335
-7.33
-7.31
-7.31
-7.3
-7.33
-7.315
-7.295
-7.295
-7.305
-7.335
-7.35
-7.345
-7.335
-7.31
-7.31
-7.265
-7.245
-7.23
-7.24
-7.225
-7.23
-7.205
-7.19
-7.155
-7.105
-7.085
-7.05
-7.08
-7.135
-7.18
-7.19
-7.195
-7.155
-7.12
-7.09
-7.07
-7.075
-7.08
-7.075
-7.09
-7.075
-7.06
-7.07
-7.07
-7.065
-7.07
-7.07
-7.08
-7.08
-7.08
-7.115
-7.135
-7.125
-7.095
-7.1
-7.085
-7.08
-7.085
-7.105
-7.105
-7.115
-7.11
-7.11
-7.11
-7.095
-7.09
-7.09
-7.095
-7.105
-7.115
-7.135
-7.125
-7.12
-7.13
-7.1
-7.1
-7.1
-7.095
-7.115
-7.13
-7.145
-7.155
-7.155
-7.13
-7.105
-7.075
-7.055
-7.085
-7.1
-7.13
-7.15
-7.16
-7.155
-7.16
-7.145
-7.11
-7.085
-7.075
-7.05
-7.04
-7.035
-7.025
-7.02
-7.015
-6.98
-6.96
-6.945
-6.95
-6.94
-6.945
-6.955
-6.955
-6.965
-6.97
-6.97
-6.98
-6.985
-6.985
-6.99
-7.015
-7.015
-7.02
-7.02
-7.025
-7.02
-7.015
-7.01
-6.995
-7.025
-7.035
-7.08
-7.075
-7.105
-7.12
-7.095
-7.09
-7.095
-7.095
-7.12
-7.125
-7.185
-7.225
-7.25
-7.255
-7.245
-7.205
-7.18
-7.16
-7.155
-7.145
-7.155
-7.155
-7.165
-7.175
-7.195
-7.19
-7.215
-7.22
-7.215
-7.205
-7.245
-7.255
-7.26
-7.27
-7.28
-7.265
-7.23
-7.165
-7.085
-7.0
-6.91
-6.825
-6.785
-6.79
-6.78
-6.705
-6.57
-6.35
-6.12
-5.91
-5.815
-5.84
-6.06
-6.385
-6.775
-7.145
-7.425
-7.63
-7.72
-7.815
-7.92
-8.015
-8.12
-8.2
-8.245
-8.25
-8.24
-8.22
-8.215
-8.2
-8.175
-8.175
-8.15
-8.135
-8.065
-7.98
-7.86
-7.69
-7.56
-7.44
-7.375
-7.325
-7.3
-7.255
-7.24
-7.225
-7.195
-7.165
-7.165
-7.16
-7.165
-7.16
-7.155
-7.14
-7.135
-7.14
-7.145
-7.15
-7.14
-7.13
-7.145
-7.135
-7.155
-7.185
-7.225
-7.245
-7.25
-7.255
-7.235
-7.23
-7.245
-7.235
-7.255
-7.245
-7.27
-7.28
-7.29
-7.315
-7.31
-7.325
-7.32
-7.325
-7.34
-7.365
-7.37
-7.355
-7.35
-7.345
-7.335
-7.335
-7.345
-7.33
-7.325
-7.32
-7.325
-7.325
-7.325
-7.305
-7.29
-7.27
-7.28
-7.26
-7.27
-7.255
-7.24
-7.22
-7.19
-7.175
-7.145
-7.1
-7.095
-7.115
-7.135
-7.15
-7.135
-7.1
-7.095
-7.075
-7.075
-7.08
-7.085
-7.08
-7.08
-7.105
-7.11
-7.13
-7.14
-7.13
-7.125
-7.11
-7.1
-7.095
-7.09
-7.105
-7.11
-7.1
-7.1
-7.11
-7.105
-7.105
-7.1
-7.11
-7.105
-7.1
-7.08
-7.08
-7.1
-7.13
-7.17
-7.195
-7.21
-7.215
-7.185
-7.16
-7.14
-7.125
-7.125
-7.135
-7.125
-7.145
-7.165
-7.17
-7.18
-7.175
-7.175
-7.16
-7.145
-7.135
-7.13
-7.13
-7.115
-7.15
-7.155
-7.17
-7.165
-7.19
-7.185
-7.17
-7.14
-7.12
-7.105
-7.095
-7.1
-7.105
-7.11
-7.1
-7.095
-7.095
-7.06
-7.03
-7.015
-6.995
-6.955
-6.94
-6.94
-6.945
-6.95
-6.96
-6.97
-6.97
-6.99
-7.01
-7.025
-7.05
-7.05
-7.06
-7.065
-7.06
-7.055
-7.035
-7.04
-7.04
-7.07
-7.095
-7.12
-7.12
-7.115
-7.135
-7.135
-7.135
-7.145
-7.165
-7.195
-7.21
-7.25
-7.245
-7.24
-7.225
-7.215
-7.2
-7.185
-7.18
-7.18
-7.19
-7.205
-7.225
-7.26
-7.265
-7.255
-7.24
-7.21
-7.19
-7.19
-7.235
-7.23
-7.28
-7.325
-7.37
-7.385
-7.335
-7.24
-7.135
-7.0
-6.905
-6.825
-6.815
-6.825
-6.81
-6.72
-6.545
-6.305
-6.035
-5.835
-5.78
-5.925
-6.265
-6.735
-7.2
-7.57
-7.83
-7.95
-8.03
-8.12
-8.205
-8.25
-8.27
-8.24
-8.235
-8.23
-8.245
-8.24
-8.25
-8.205
-8.155
-8.07
-7.98
-7.885
-7.77
-7.66
-7.545
-7.455
-7.395
-7.33
-7.285
-7.255
-7.245
-7.23
-7.235
-7.205
-7.19
-7.18
-7.17
-7.18
-7.175
-7.2
-7.225
-7.225
-7.22
-7.23
-7.205
-7.195
-7.185
-7.175
-7.17
-7.19
-7.205
-7.25
-7.26
-7.255
-7.285
-7.3
-7.295
-7.285
-7.3
-7.325
-7.335
-7.365
-7.395
-7.41
-7.43
-7.425
-7.41
-7.41
-7.4
-7.39
-7.375
-7.37
-7.35
-7.34
-7.325
-7.335
-7.345
-7.365
-7.355
-7.36
-7.315
-7.3
-7.28
-7.26
-7.245
-7.245
-7.215
-7.195
-7.17
-7.17
-7.155
-7.15
-7.14
-7.135
-7.13
-7.135
-7.12
-7.105
-7.085
-7.085
-7.09
-7.1
-7.11
-7.115
-7.1
-7.095
-7.09
-7.09
-7.105
-7.11
-7.1
-7.105
-7.11
-7.125
-7.115
-7.115
-7.12
-7.135
-7.125
-7.145
-7.11
-7.115
-7.12
-7.12
-7.135
-7.15
-7.135
-7.15
-7.135
-7.095
-7.08
-7.075
-7.095
-7.155
-7.205
-7.23
-7.24
-7.225
-7.21
-7.195
-7.19
-7.185
-7.175
-7.18
-7.165
-7.14
-7.14
-7.15
-7.155
-7.16
-7.16
-7.16
-7.16
-7.175
-7.17
-7.16
-7.145
-7.135
-7.13
-7.13
-7.135
-7.13
-7.135
-7.135
-7.135
-7.115
-7.11
-7.095
-7.06
-7.04
-7.02
-7.02
-7.025
-7.05
-7.055
-7.05
-7.015
-6.975
-6.94
-6.935
-6.925
-6.975
-7.0
-7.025
-7.055
-7.07
-7.105
-7.105
-7.11
-7.09
-7.07
-7.035
-7.01
-6.985
-6.98
-6.975
-6.99
-7.01
-7.055
-7.105
-7.155
-7.185
-7.185
-7.205
-7.175
-7.175
-7.18
-7.205
-7.245
-7.27
-7.275
-7.295
-7.26
-7.24
-7.19
-7.15
-7.135
-7.175
-7.235
-7.285
-7.32
-7.32
-7.3
-7.27
-7.25
-7.24
-7.255
-7.26
-7.265
-7.28
-7.295
-7.29
-7.265
-7.18
-7.07
-6.945
-6.82
-6.74
-6.72
-6.715
-6.68
-6.585
-6.42
-6.18
-5.96
-5.815
-5.8
-5.95
-6.28
-6.695
-7.14
-7.52
-7.795
-7.97
-8.03
-8.075
-8.12
-8.2
-8.315
-8.4
-8.455
-8.465
-8.43
-8.385
-8.365
-8.39
-8.385
-8.38
-8.365
-8.305
-8.23
-8.12
-7.955
-7.76
-7.6
-7.52
-7.43
-7.4
-7.405
-7.4
-7.395
-7.39
-7.355
-7.335
-7.3
-7.285
-7.265
-7.265
-7.255
-7.26
-7.265
-7.265
-7.275
-7.295
-7.29
-7.29
-7.285
-7.285
-7.275
-7.295
-7.32
-7.315
-7.35
-7.375
-7.41
-7.43
-7.44
-7.465
-7.46
-7.45
-7.44
-7.435
-7.435
-7.445
-7.475
-7.48
-7.5
-7.515
-7.515
-7.53
-7.52
-7.505
-7.495
-7.485
-7.475
-7.465
-7.475
-7.47
-7.48
-7.46
-7.44
-7.435
-7.41
-7.405
-7.42
-7.425
-7.41
-7.385
-7.37
-7.335
-7.325
-7.31
-7.285
-7.29
-7.275
-7.275
-7.27
-7.28
-7.245
-7.275
-7.235
-7.255
-7.255
-7.28
-7.29
-7.295
-7.27
-7.245
-7.235
-7.22
-7.195
-7.205
-7.23
-7.27
-7.33
-7.345
-7.35
-7.32
-7.31
-7.29
-7.27
-7.275
-7.275
-7.295
-7.31
-7.33
-7.33
-7.33
-7.34
-7.34
-7.34
-7.335
-7.33
-7.325
-7.335
-7.355
-7.375
-7.36
-7.38
-7.39
-7.39
-7.42
-7.42
-7.41
-7.395
-7.385
-7.38
-7.365
-7.365
-7.375
-7.375
-7.39
-7.4
-7.4
-7.415
-7.4
-7.385
-7.365
-7.37
-7.37
-7.395
-7.405
-7.405
-7.43
-7.4
-7.405
-7.375
-7.35
-7.325
-7.295
-7.275
-7.28
-7.29
-7.285
-7.295
-7.265
-7.26
-7.23
-7.215
-7.205
-7.19
-7.195
-7.17
-7.19
-7.205
-7.225
-7.255
-7.3
-7.32
-7.35
-7.355
-7.335
-7.31
-7.28
-7.255
-7.235
-7.23
-7.24
-7.27
-7.32
-7.35
-7.39
-7.41
-7.43
-7.43
-7.445
-7.44
-7.455
-7.465
-7.485
-7.5
-7.52
-7.52
-7.525
-7.54
-7.53
-7.52
-7.52
-7.5
-7.51
-7.515
-7.525
-7.53
-7.54
-7.515
-7.53
-7.525
-7.525
-7.545
-7.57
-7.59
-7.59
-7.575
-7.54
-7.475
-7.385
-7.26
-7.12
-7.01
-6.945
-6.935
-6.93
-6.9
-6.815
-6.63
-6.41
-6.175
-6.09
-6.145
-6.44
-6.91
-7.425
-7.88
-8.205
-8.34
-8.42
-8.44
-8.46
-8.53
-8.585
-8.655
-8.695
-8.73
-8.73
-8.735
-8.68
-8.64
-8.56
-8.51
-8.445
-8.335
-8.195
-8.055
-7.91
-7.78
-7.69
-7.645
-7.635
-7.615
-7.62
-7.605
-7.59
-7.59
-7.585
-7.595
-7.585
-7.57
-7.565
-7.55
-7.545
-7.52
-7.535
-7.565
-7.57
-7.6
-7.605
-7.62
-7.61
-7.58
-7.575
-7.575
-7.585
-7.59
-7.62
-7.63
-7.645
-7.66
-7.665
-7.675
-7.7
-7.7
-7.7
-7.735
-7.715
-7.695
-7.7
-7.705
-7.69
-7.71
-7.73
-7.725
-7.735
-7.715
-7.71
-7.715
-7.715
-7.7
-7.7
-7.7
-7.68
-7.665
-7.64
-7.635
-7.625
-7.605
-7.58
-7.57
-7.56
-7.53
-7.51
-7.495
-7.49
-7.495
-7.5
-7.52
-7.51
-7.515
-7.495
-7.48
-7.47
-7.47
-7.47
-7.47
-7.47
-7.475
-7.46
-7.465
-7.46
-7.46
-7.455
-7.46
-7.47
-7.465
-7.495
-7.505
-7.515
-7.515
-7.535
-7.545
-7.56
-7.535
-7.54
-7.53
-7.525
-7.52
-7.515
-7.505
-7.52
-7.515
-7.52
-7.525
-7.53
-7.54
-7.53
-7.53
-7.53
-7.53
-7.52
-7.51
-7.525
-7.525
-7.53
-7.53
-7.52
-7.515
-7.53
-7.52
-7.505
-7.49
-7.5
-7.495
-7.495
-7.5
-7.495
-7.495
-7.525
-7.525
-7.52
-7.505
-7.5
-7.475
-7.445
-7.445
-7.44
-7.43
-7.42
-7.415
-7.42
-7.405
-7.375
-7.34
-7.325
-7.285
-7.265
-7.27
-7.275
-7.28
-7.31
-7.315
-7.335
-7.325
-7.33
-7.345
-7.365
-7.355
-7.365
-7.37
-7.36
-7.355
-7.35
-7.305
-7.3
-7.305
-7.335
-7.375
-7.425
-7.425
-7.465
-7.45
-7.455
-7.455
-7.45
-7.485
-7.515
-7.53
-7.56
-7.545
-7.53
-7.495
-7.51
-7.5
-7.505
-7.51
-7.52
-7.53
-7.52
-7.54
-7.535
-7.525
-7.515
-7.505
-7.49
-7.49
-7.51
-7.515
-7.54
-7.555
-7.57
-7.57
-7.565
-7.57
-7.515
-7.43
-7.3
-7.145
-6.985
-6.89
-6.885
-6.905
-6.905
-6.845
-6.685
-6.44
-6.205
-6.015
-5.96
-6.09
-6.405
-6.88
-7.38
-7.81
-8.115
-8.27
-8.335
-8.355
-8.37
-8.415
-8.475
-8.55
-8.565
-8.565
-8.56
-8.51
-8.5
-8.495
-8.475
-8.45
-8.385
-8.3
-8.19
-8.05
-7.9
-7.775
-7.685
-7.615
-7.565
-7.54
-7.515
-7.495
-7.475
-7.43
-7.415
-7.405
-7.415
-7.43
-7.435
-7.44
-7.42
-7.405
-7.4
-7.395
-7.4
-7.395
-7.425
-7.435
-7.445
-7.45
-7.465
-7.47
-7.475
-7.475
-7.465
-7.47
-7.455
-7.47
-7.485
-7.495
-7.515
-7.54
-7.58
-7.57
-7.58
-7.565
-7.56
-7.545
-7.54
-7.54
-7.56
-7.575
-7.565
-7.575
-7.58
-7.575
-7.575
-7.56
-7.57
-7.565
-7.58
-7.545
-7.51
-7.49
-7.47
-7.45
-7.425
-7.425
-7.435
-7.43
-7.405
-7.38
-7.345
-7.31
-7.28
-7.27
-7.27
-7.27
-7.27
-7.275
-7.26
-7.255
-7.245
-7.225
-7.235
-7.22
-7.235
-7.225
-7.22
-7.225
-7.225
-7.25
-7.26
-7.285
-7.28
-7.25
-7.24
-7.215
-7.22
-7.225
-7.26
-7.275
-7.275
-7.29
-7.285
-7.27
-7.26
-7.245
-7.245
-7.235
-7.24
-7.235
-7.245
-7.25
-7.235
-7.245
-7.245
-7.25
-7.255
-7.265
-7.265
-7.29
-7.295
-7.28
-7.26
-7.28
-7.27
-7.285
-7.285
-7.29
-7.285
-7.285
-7.275
-7.255
-7.245
-7.245
-7.235
-7.235
-7.245
-7.255
-7.245
-7.24
-7.245
-7.225
-7.2
-7.16
-7.125
-7.125
-7.12
-7.115
-7.1
-7.08
-7.075
-7.06
-7.045
-7.055
-7.045
-7.015
-7.015
-7.0
-7.0
-7.01
-7.025
-7.045
-7.075
-7.105
-7.13
-7.13
-7.12
-7.1
-7.075
-7.045
-7.03
-7.025
-7.03
-7.045
-7.09
-7.12
-7.15
-7.19
-7.215
-7.215
-7.215
-7.225
-7.215
-7.22
-7.23
-7.225
-7.22
-7.23
-7.24
-7.255
-7.26
-7.26
-7.265
-7.25
-7.25
-7.25
-7.255
-7.255
-7.265
-7.255
-7.25
-7.25
-7.235
-7.23
-7.24
-7.28
-7.33
-7.355
-7.34
-7.29
-7.17
-7.04
-6.87
-6.73
-6.65
-6.62
-6.63
-6.62
-6.545
-6.375
-6.15
-5.885
-5.715
-5.655
-5.785
-6.12
-6.585
-7.065
-7.485
-7.765
-7.925
-7.995
-8.05
-8.125
-8.195
-8.255
-8.32
-8.3
-8.295
-8.285
-8.265
-8.255
-8.24
-8.215
-8.17
-8.125
-8.015
-7.895
-7.74
-7.575
-7.46
-7.36
-7.295
-7.24
-7.21
-7.2
-7.205
-7.205
-7.195
-7.19
-7.175
-7.18
-7.17
-7.165
-7.18
-7.155
-7.16
-7.16
-7.185
-7.185
-7.195
-7.205
-7.195
-7.19
-7.21
-7.195
-7.195
-7.21
-7.235
-7.26
-7.28
-7.3
-7.305
-7.3
-7.295
-7.265
-7.245
-7.23
-7.22
-7.225
-7.275
-7.33
-7.37
-7.415
-7.415
-7.4
-7.37
-7.335
-7.31
-7.295
-7.285
-7.28
-7.28
-7.275
-7.29
-7.28
-7.285
-7.265
-7.245
-7.21
-7.18
-7.14
-7.1
-7.095
-7.095
-7.1
-7.105
-7.115
-7.12
-7.115
-7.09
-7.075
-7.045
-7.015
-7.0
-7.02
-7.035
-7.055
-7.055
-7.055
-7.06
-7.065
-7.04
-7.035
-7.005
-6.995
-7.0
-7.0
-6.995
-7.0
-7.015
-7.025
-7.08
-7.085
-7.065
-7.055
-7.05
-7.04
-7.045
-7.035
-7.035
-7.03
-7.035
-7.04
-7.04
-7.045
-7.065
-7.06
-7.045
-7.03
-7.04
-7.045
-7.065
-7.095
-7.085
-7.08
-7.08
-7.07
-7.08
-7.075
-7.07
-7.06
-7.05
-7.045
-7.03
-7.045
-7.065
-7.065
-7.07
-7.06
-7.065
-7.045
-7.025
-7.01
-7.0
-6.995
-6.99
-6.99
-6.975
-6.955
-6.94
-6.915
-6.925
-6.925
-6.93
-6.925
-6.895
-6.88
-6.875
-6.885
-6.86
-6.835
-6.84
-6.83
-6.83
-6.815
-6.805
-6.795
-6.805
-6.83
-6.87
-6.905
-6.94
-6.955
-6.94
-6.925
-6.895
-6.85
-6.84
-6.83
-6.865
-6.9
-6.93
-6.965
-6.985
-6.995
-7.015
-7.025
-7.015
-7.04
-7.045
-7.055
-7.065
-7.085
-7.1
-7.1
-7.085
-7.11
-7.115
-7.135
-7.13
-7.125
-7.115
-7.095
-7.07
-7.065
-7.065
-7.09
-7.105
-7.13
-7.14
-7.165
-7.155
-7.16
-7.17
-7.16
-7.13
-7.07
-6.96
-6.795
-6.64
-6.525
-6.46
-6.455
-6.475
-6.46
-6.365
-6.17
-5.92
-5.68
-5.535
-5.58
-5.835
-6.275
-6.78
-7.25
-7.605
-7.8
-7.895
-7.94
-7.985
-8.045
-8.11
-8.195
-8.255
-8.275
-8.27
-8.255
-8.225
-8.195
-8.165
-8.14
-8.095
-8.04
-8.0
-7.915
-7.8
-7.665
-7.535
-7.41
-7.29
-7.22
-7.15
-7.115
-7.11
-7.095
-7.09
-7.08
-7.075
-7.08
-7.08
-7.055
-7.06
-7.07
-7.075
-7.06
-7.045
-7.05
-7.05
-7.06
-7.085
-7.1
-7.1
-7.09
-7.09
-7.075
-7.075
-7.09
-7.095
-7.11
-7.125
-7.155
-7.165
-7.2
-7.2
-7.195
-7.19
-7.205
-7.205
-7.2
-7.2
-7.22
-7.24
-7.25
-7.265
-7.29
-7.285
-7.28
-7.265
-7.26
-7.24
-7.235
-7.21
-7.195
-7.21
-7.2
-7.19
-7.17
-7.155
-7.145
-7.13
-7.12
-7.105
-7.095
-7.07
-7.06
-7.04
-7.03
-7.01
-6.995
-7.0
-6.975
-6.97
-6.955
-6.95
-6.965
-6.975
-6.985
-7.005
-7.015
-7.02
-7.02
-7.005
-6.99
-6.975
-6.975
-6.975
-6.975
-6.99
-6.985
-7.005
-6.995
-7.0
-7.01
-7.02
-7.01
-7.01
-7.025
-7.03
-7.01
-7.005
-7.005
-7.015
-7.03
-7.045
-7.05
-7.06
-7.07
-7.06
-7.065
-7.05
-7.045
-7.045
-7.03
-7.03
-7.065
-7.075
-7.08
-7.075
-7.07
-7.085
-7.045
-7.04
-7.04
-7.035
-7.045
-7.04
-7.045
-7.03
-7.035
-7.05
-7.07
-7.095
-7.09
-7.08
-7.07
-7.055
-7.045
-7.025
-7.02
-7.0
-6.995
-6.985
-6.97
-6.95
-6.94
-6.92
-6.88
-6.86
-6.845
-6.85
-6.86
-6.845
-6.835
-6.84
-6.84
-6.865
-6.85
-6.86
-6.885
-6.89
-6.895
-6.9
-6.925
-6.925
-6.945
-6.93
-6.9
-6.885
-6.85
-6.85
-6.875
-6.89
-6.93
-6.96
-6.99
-6.99
-7.01
-7.02
-7.01
-7.025
-7.035
-7.05
-7.06
-7.075
-7.075
-7.09
-7.08
-7.09
-7.085
-7.12
-7.1
-7.085
-7.055
-7.065
-7.055
-7.045
-7.05
-7.03
-7.035
-7.07
-7.11
-7.125
-7.16
-7.175
-7.18
-7.17
-7.16
-7.11
-7.02
-6.91
-6.77
-6.61
-6.47
-6.42
-6.41
-6.445
-6.415
-6.31
-6.14
-5.895
-5.665
-5.51
-5.525
-5.685
-6.015
-6.49
-6.99
-7.395
-7.675
-7.815
-7.885
-7.945
-8.02
-8.1
-8.175
-8.21
-8.225
-8.195
-8.165
-8.15
-8.115
-8.08
-8.025
-8.0
-7.97
-7.87
-7.755
-7.615
-7.475
-7.35
-7.23
-7.14
-7.085
-7.055
-7.035
-7.02
-7.005
-6.985
-6.99
-6.99
-7.0
-7.01
-7.01
-6.985
-6.97
-6.95
-6.935
-6.935
-6.955
-6.98
-6.99
-7.005
-7.005
-6.995
-6.985
-6.99
-6.98
-7.01
-7.04
-7.055
-7.085
-7.09
-7.085
-7.085
-7.1
-7.115
-7.115
-7.125
-7.115
-7.11
-7.1
-7.105
-7.12
-7.145
-7.165
-7.18
-7.18
-7.185
-7.18
-7.165
-7.15
-7.12
-7.115
-7.1
-7.08
-7.09
-7.085
-7.07
-7.06
-7.055
-7.03
-7.0
-6.98
-6.955
-6.92
-6.9
-6.89
-6.87
-6.875
-6.89
-6.895
-6.91
-6.9
-6.89
-6.865
-6.84
-6.82
-6.795
-6.78
-6.785
-6.785
-6.815
-6.845
-6.85
-6.86
-6.83
-6.81
-6.805
-6.79
-6.8
-6.81
-6.81
-6.83
-6.825
-6.835
-6.825
-6.81
-6.82
-6.82
-6.84
-6.85
-6.835
-6.835
-6.81
-6.81
-6.825
-6.84
-6.835
-6.835
-6.835
-6.81
-6.825
-6.825
-6.83
-6.83
-6.85
-6.865
-6.85
-6.85
-6.855
-6.85
-6.85
-6.84
-6.83
-6.83
-6.79
-6.805
-6.775
-6.785
-6.8
-6.82
-6.835
-6.83
-6.83
-6.8
-6.795
-6.775
-6.77
-6.76
-6.735
-6.715
-6.71
-6.69
-6.695
-6.685
-6.68
-6.64
-6.615
-6.585
-6.565
-6.555
-6.555
-6.575
-6.57
-6.59
-6.585
-6.595
-6.61
-6.63
-6.64
-6.655
-6.66
-6.655
-6.645
-6.645
-6.64
-6.63
-6.605
-6.6
-6.62
-6.66
-6.705
-6.74
-6.74
-6.75
-6.74
-6.74
-6.73
-6.73
-6.765
-6.8
-6.805
-6.82
-6.825
-6.815
-6.825
-6.845
-6.835
-6.845
-6.845
-6.845
-6.84
-6.85
-6.84
-6.82
-6.815
-6.79
-6.805
-6.805
-6.805
-6.83
-6.86
-6.905
-6.915
-6.935
-6.87
-6.79
-6.67
-6.515
-6.385
-6.275
-6.24
-6.245
-6.265
-6.205
-6.07
-5.835
-5.55
-5.31
-5.205
-5.265
-5.525
-5.95
-6.425
-6.865
-7.205
-7.405
-7.48
-7.52
-7.57
-7.63
-7.695
-7.775
-7.825
-7.85
-7.85
-7.835
-7.805
-7.815
-7.79
-7.775
-7.74
-7.675
-7.575
-7.42
-7.26
-7.11
-6.985
-6.895
-6.83
-6.81
-6.825
-6.82
-6.815
-6.805
-6.78
-6.75
-6.71
-6.69
-6.68
-6.69
-6.71
-6.73
-6.74
-6.74
-6.735
-6.725
-6.73
-6.735
-6.755
-6.77
-6.765
-6.785
-6.79
-6.8
-6.815
-6.81
-6.815
-6.82
-6.815
-6.805
-6.81
-6.825
-6.84
-6.87
-6.885
-6.9
-6.89
-6.895
-6.89
-6.86
-6.85
-6.85
-6.845
-6.865
-6.875
-6.89
-6.94
-6.935
-6.93
-6.92
-6.905
-6.87
-6.845
-6.83
-6.825
-6.835
-6.825
-6.84
-6.83
-6.805
-6.8
-6.79
-6.775
-6.745
-6.72
-6.685
-6.65
-6.635
-6.62
-6.61
-6.615
-6.615
-6.62
-6.625
-6.63
-6.62
-6.62
-6.605
-6.595
-6.59
-6.59
-6.6
-6.61
-6.62
-6.62
-6.625
-6.615
-6.595
-6.58
-6.57
-6.565
-6.565
-6.575
-6.605
-6.61
-6.625
-6.62
-6.63
-6.605
-6.605
-6.6
-6.6
-6.585
-6.6
-6.58
-6.59
-6.605
-6.615
-6.63
-6.645
-6.645
-6.65
-6.65
-6.625
-6.625
-6.64
-6.63
-6.62
-6.63
-6.655
-6.625
-6.635
-6.615
-6.615
-6.6
-6.595
-6.6
-6.615
-6.645
-6.68
-6.66
-6.64
-6.625
-6.605
-6.595
-6.575
-6.565
-6.54
-6.525
-6.5
-6.495
-6.465
-6.445
-6.435
-6.44
-6.41
-6.395
-6.395
-6.39
-6.375
-6.385
-6.4
-6.395
-6.42
-6.455
-6.5
-6.54
-6.54
-6.54
-6.53
-6.485
-6.455
-6.43
-6.4
-6.415
-6.415
-6.45
-6.495
-6.545
-6.575
-6.59
-6.605
-6.615
-6.6
-6.595
-6.62
-6.635
-6.655
-6.67
-6.69
-6.695
-6.69
-6.68
-6.665
-6.66
-6.665
-6.665
-6.68
-6.69
-6.695
-6.7
-6.71
-6.7
-6.705
-6.705
-6.69
-6.69
-6.7
-6.72
-6.745
-6.8
-6.815
-6.795
-6.705
-6.58
-6.445
-6.305
-6.22
-6.19
-6.14
-6.035
-5.86
-5.59
-5.315
-5.13
-5.105
-5.27
-5.635
-6.1
-6.565
-6.935
-7.17
-7.28
-7.345
-7.415
-7.5
-7.595
-7.7
-7.74
-7.765
-7.74
-7.725
-7.695
-7.68
-7.64
-7.625
-7.61
-7.61
-7.56
-7.435
-7.3
-7.15
-7.0
-6.88
-6.78
-6.73
-6.705
-6.69
-6.69
-6.685
-6.685
-6.675
-6.68
-6.68
-6.67
-6.645
-6.635
-6.615
-6.615
-6.61
-6.65
-6.68
-6.68
-6.685
-6.695
-6.68
-6.68
-6.68
-6.685
-6.69
-6.67
-6.7
-6.7
-6.7
-6.73
-6.755
-6.79
-6.815
-6.825
-6.82
-6.805
-6.8
-6.795
-6.795
-6.81
-6.815
-6.83
-6.855
-6.875
-6.885
-6.87
-6.86
-6.845
-6.81
-6.795
-6.79
-6.795
-6.805
-6.815
-6.815
-6.79
-6.77
-6.75
-6.71
-6.7
-6.665
-6.64
-6.65
-6.64
-6.62
-6.61
-6.595
-6.59
-6.575
-6.57
-6.555
-6.55
-6.53
-6.52
-6.55
-6.545
-6.565
-6.555
-6.56
-6.55
-6.55
-6.56
-6.55
-6.56
-6.56
-6.55
-6.535
-6.535
-6.545
-6.545
-6.56
-6.6
-6.605
-6.585
-6.585
-6.575
-6.565
-6.555
-6.56
-6.555
-6.575
-6.57
-6.575
-6.58
-6.57
-6.575
-6.6
-6.6
-6.585
-6.58
-6.605
-6.635
-6.61
-6.615
-6.615
-6.615
-6.6
-6.605
-6.59
-6.6
-6.585
-6.59
-6.595
-6.59
-6.61
-6.605
-6.615
-6.62
-6.595
-6.585
-6.57
-6.57
-6.56
-6.555
-6.555
-6.525
-6.535
-6.515
-6.495
-6.5
-6.485
-6.47
-6.465
-6.445
-6.415
-6.39
-6.365
-6.355
-6.35
-6.355
-6.37
-6.385
-6.385
-6.375
-6.36
-6.35
-6.33
-6.38
-6.425
-6.475
-6.515
-6.525
-6.51
-6.49
-6.46
-6.435
-6.42
-6.405
-6.41
-6.415
-6.465
-6.505
-6.545
-6.565
-6.58
-6.58
-6.58
-6.61
-6.61
-6.625
-6.63
-6.62
-6.62
-6.625
-6.625
-6.625
-6.65
-6.66
-6.655
-6.655
-6.645
-6.65
-6.63
-6.64
-6.625
-6.61
-6.605
-6.62
-6.645
-6.655
-6.675
-6.7
-6.74
-6.74
-6.735
-6.665
-6.575
-6.435
-6.305
-6.195
-6.125
-6.085
-6.095
-6.075
-5.98
-5.825
-5.58
-5.33
-5.125
-5.02
-5.11
-5.365
-5.79
-6.295
-6.735
-7.065
-7.29
-7.37
-7.43
-7.51
-7.605
-7.685
-7.75
-7.795
-7.815
-7.815
-7.8
-7.77
-7.745
-7.71
-7.665
-7.595
-7.525
-7.415
-7.31
-7.16
-7.02
-6.895
-6.79
-6.715
-6.665
-6.635
-6.63
-6.63
-6.61
-6.6
-6.605
-6.605
-6.615
-6.595
-6.595
-6.6
-6.595
-6.6
-6.605
-6.605
-6.595
-6.58
-6.6
-6.6
-6.63
-6.655
-6.68
-6.68
-6.69
-6.675
-6.675
-6.68
-6.675
-6.7
-6.72
-6.72
-6.735
-6.76
-6.77
-6.755
-6.77
-6.795
-6.785
-6.78
-6.795
-6.785
-6.805
-6.815
-6.83
-6.85
-6.835
-6.82
-6.795
-6.78
-6.78
-6.74
-6.715
-6.71
-6.685
-6.67
-6.64
-6.6
-6.565
-6.505
-6.475
-6.46
-6.435
-6.425
-6.41
-6.395
-6.37
-6.345
-6.315
-6.285
-6.255
-6.24
-6.245
-6.26
-6.305
-6.36
-6.435
-6.485
-6.51
-6.515
-6.525
-6.5
-6.52
-6.495
-6.48
-6.495
-6.505
-6.525
-6.555
-6.585
-6.63
-6.65
-6.68
-6.69
-6.7
-6.685
-6.695
-6.68
-6.665
-6.68
-6.675
-6.685
-6.705
-6.685
-6.71
-6.725
-6.735
-6.725
-6.73
-6.715
-6.705
-6.695
-6.705
-6.72
-6.73
-6.725
-6.745
-6.74
-6.75
-6.735
-6.74
-6.715
-6.715
-6.7
-6.715
-6.72
-6.725
-6.73
-6.72
-6.72
-6.72
-6.74
-6.76
-6.76
-6.755
-6.75
-6.68
-6.585
-6.465
-6.34
-6.245
-6.195
-6.17
-6.18
-6.125
-6.01
-5.795
-5.51
-5.255
-5.075
-5.04
-5.22
-5.59
-6.075
-6.595
-7.035
-7.36
-7.51
-7.585
-7.615
-7.67
-7.705
-7.785
-7.85
-7.875
-7.905
-7.89
-7.895
-7.86
-7.845
-7.795
-7.745
-7.69
-7.605
-7.5
-7.35
-7.21
-7.06
-6.955
-6.855
-6.77
-6.725
-6.71
-6.68
-6.685
-6.67
-6.675
-6.665
-6.675
-6.665
-6.655
-6.655
-6.64
-6.645
-6.62
-6.63
-6.64
-6.655
-6.665
-6.69
-6.7
-6.715
-6.72
-6.72
-6.715
-6.735
-6.745
-6.755
-6.78
-6.8
-6.8
-6.81
-6.825
-6.825
-6.855
-6.875
-6.88
-6.88
-6.86
-6.88
-6.87
-6.89
-6.895
-6.905
-6.925
-6.925
-6.935
-6.925
-6.905
-6.895
-6.88
-6.845
-6.83
-6.8
-6.785
-6.785
-6.775
-6.76
-6.77
-6.75
-6.715
-6.695
-6.675
-6.66
-6.65
-6.66
-6.665
-6.665
-6.685
-6.675
-6.685
-6.68
-6.655
-6.66
-6.635
-6.63
-6.64
-6.655
-6.675
-6.7
-6.71
-6.71
-6.71
-6.7
-6.69
-6.695
-6.675
-6.67
-6.67
-6.675
-6.69
-6.7
-6.7
-6.705
-6.71
-6.71
-6.695
-6.69
-6.7
-6.69
-6.68
-6.675
-6.695
-6.72
-6.705
-6.705
-6.7
-6.71
-6.695
-6.69
-6.685
-6.68
-6.67
-6.665
-6.67
-6.695
-6.7
-6.71
-6.7
-6.71
-6.685
-6.675
-6.66
-6.68
-6.665
-6.67
-6.7
-6.67
-6.675
-6.685
-6.685
-6.675
-6.665
-6.665
-6.655
-6.655
-6.68
-6.67
-6.675
-6.675
-6.69
-6.695
-6.68
-6.685
-6.665
-6.66
-6.65
-6.655
-6.65
-6.65
-6.67
-6.675
-6.685
-6.695
-6.69
-6.68
-6.665
-6.655
-6.65
-6.655
-6.65
-6.655
-6.67
-6.67
-6.675
-6.675
-6.67
-6.65
-6.64
-6.62
-6.585
-6.575
-6.57
-6.555
-6.555
-6.535
-6.525
-6.51
-6.49
-6.48
-6.45
-6.43
-6.425
-6.415
-6.435
-6.425
-6.435
-6.46
-6.505
-6.545
-6.56
-6.58
-6.57
-6.54
-6.515
-6.485
-6.47
-6.485
-6.49
-6.495
-6.52
-6.565
-6.59
-6.615
-6.62
-6.615
-6.615
-6.615
-6.635
-6.66
-6.69
-6.72
-6.73
-6.735
-6.75
-6.73
-6.715
-6.71
-6.7
-6.69
-6.7
-6.7
-6.705
-6.715
-6.725
-6.725
-6.73
-6.74
-6.745
-6.765
-6.79
-6.805
-6.84
-6.835
-6.8
-6.725
-6.615
-6.46
-6.32
-6.2
-6.14
-6.145
-6.135
-6.085
-5.98
-5.78
-5.525
-5.31
-5.19
-5.225
-5.405
-5.74
-6.18
-6.615
-6.97
-7.225
-7.385
-7.47
-7.535
-7.59
-7.69
-7.765
-7.84
-7.875
-7.855
-7.825
-7.805
-7.795
-7.775
-7.755
-7.74
-7.73
-7.68
-7.605
-7.5
-7.35
-7.2
-7.045
-6.9
-6.82
-6.765
-6.745
-6.76
-6.77
-6.775
-6.76
-6.74
-6.73
-6.695
-6.675
-6.65
-6.635
-6.64
-6.645
-6.66
-6.685
-6.7
-6.71
-6.725
-6.72
-6.715
-6.72
-6.71
-6.695
-6.71
-6.725
-6.72
-6.74
-6.76
-6.755
-6.78
-6.8
-6.79
-6.795
-6.815
-6.83
-6.82
-6.83
-6.84
-6.85
-6.86
-6.875
-6.865
-6.865
-6.855
-6.835
-6.845
-6.84
-6.845
-6.84
-6.83
-6.845
-6.82
-6.82
-6.83
-6.835
-6.825
-6.81
-6.785
-6.755
-6.745
-6.72
-6.705
-6.7
-6.685
-6.675
-6.665
-6.655
-6.645
-6.62
-6.605
-6.57
-6.57
-6.555
-6.545
-6.54
-6.545
-6.535
-6.53
-6.53
-6.525
-6.515
-6.505
-6.51
-6.525
-6.52
-6.51
-6.53
-6.525
-6.53
-6.525
-6.52
-6.52
-6.5
-6.495
-6.495
-6.5
-6.505
-6.505
-6.505
-6.54
-6.545
-6.54
-6.525
-6.5
-6.495
-6.48
-6.47
-6.48
-6.505
-6.525
-6.56
-6.56
-6.56
-6.555
-6.545
-6.545
-6.535
-6.525
-6.52
-6.53
-6.525
-6.53
-6.535
-6.545
-6.54
-6.54
-6.545
-6.555
-6.565
-6.56
-6.54
-6.54
-6.545
-6.55
-6.545
-6.54
-6.555
-6.55
-6.545
-6.55
-6.535
-6.52
-6.495
-6.49
-6.49
-6.475
-6.465
-6.465
-6.49
-6.455
-6.42
-6.405
-6.38
-6.345
-6.32
-6.325
-6.34
-6.335
-6.33
-6.33
-6.345
-6.35
-6.37
-6.37
-6.385
-6.39
-6.395
-6.4
-6.41
-6.43
-6.42
-6.405
-6.395
-6.39
-6.365
-6.36
-6.37
-6.395
-6.42
-6.445
-6.47
-6.495
-6.515
-6.51
-6.54
-6.55
-6.575
-6.57
-6.57
-6.57
-6.56
-6.565
-6.56
-6.57
-6.565
-6.58
-6.575
-6.575
-6.575
-6.565
-6.545
-6.535
-6.535
-6.55
-6.57
-6.595
-6.63
-6.655
-6.67
-6.7
-6.715
-6.67
-6.58
-6.455
-6.325
-6.205
-6.125
-6.105
-6.11
-6.075
-5.955
-5.755
-5.47
-5.185
-4.995
-4.96
-5.08
-5.395
-5.835
-6.305
-6.71
-6.975
-7.14
-7.24
-7.32
-7.395
-7.475
-7.56
-7.595
-7.64
-7.62
-7.61
-7.625
-7.595
-7.595
-7.575
-7.535
-7.475
-7.405
-7.275
-7.125
-6.99
-6.825
-6.725
-6.645
-6.575
-6.555
-6.535
-6.525
-6.515
-6.52
-6.495
-6.49
-6.49
-6.485
-6.495
-6.49
-6.485
-6.5
-6.5
-6.505
-6.52
-6.505
-6.505
-6.505
-6.515
-6.505
-6.515
-6.535
-6.555
-6.58
-6.585
-6.585
-6.585
-6.575
-6.605
-6.61
-6.63
-6.65
-6.65
-6.685
-6.7
-6.715
-6.72
-6.71
-6.69
-6.675
-6.66
-6.64
-6.645
-6.66
-6.67
-6.665
-6.66
-6.685
-6.69
-6.69
-6.705
-6.695
-6.65
-6.63
-6.625
-6.62
-6.625
-6.6
-6.585
-6.555
-6.53
-6.505
-6.5
-6.49
-6.45
-6.435
-6.44
-6.43
-6.41
-6.415
-6.39
-6.38
-6.4
-6.415
-6.415
-6.425
-6.43
-6.42
-6.43
-6.425
-6.415
-6.42
-6.415
-6.42
-6.44
-6.44
-6.425
-6.41
-6.4
-6.38
-6.39
-6.405
-6.41
-6.44
-6.455
-6.475
-6.49
-6.5
-6.49
-6.485
-6.48
-6.475
-6.445
-6.45
-6.445
-6.45
-6.455
-6.495
-6.505
-6.505
-6.475
-6.455
-6.475
-6.495
-6.51
-6.495
-6.49
-6.485
-6.505
-6.505
-6.5
-6.5
-6.485
-6.455
-6.45
-6.44
-6.455
-6.475
-6.48
-6.5
-6.53
-6.535
-6.525
-6.5
-6.48
-6.44
-6.385
-6.345
-6.34
-6.32
-6.295
-6.315
-6.305
-6.315
-6.295
-6.28
-6.27
-6.24
-6.23
-6.205
-6.215
-6.26
-6.265
-6.3
-6.315
-6.34
-6.38
-6.38
-6.385
-6.4
-6.41
-6.395
-6.38
-6.365
-6.35
-6.345
-6.325
-6.35
-6.385
-6.43
-6.445
-6.47
-6.48
-6.46
-6.46
-6.49
-6.5
-6.52
-6.545
-6.535
-6.54
-6.53
-6.54
-6.545
-6.555
-6.55
-6.55
-6.55
-6.55
-6.555
-6.56
-6.555
-6.57
-6.59
-6.625
-6.605
-6.58
-6.575
-6.595
-6.63
-6.675
-6.71
-6.735
-6.73
-6.67
-6.555
-6.42
-6.265
-6.14
-6.06
-6.08
-6.065
-6.03
-5.92
-5.725
-5.46
-5.195
-5.045
-5.04
-5.265
-5.68
-6.185
-6.68
-7.03
-7.26
-7.365
-7.41
-7.455
-7.535
-7.62
-7.68
-7.72
-7.73
-7.73
-7.725
-7.735
-7.725
-7.72
-7.68
-7.635
-7.565
-7.48
-7.345
-7.185
-7.015
-6.865
-6.75
-6.675
-6.615
-6.585
-6.58
-6.59
-6.57
-6.59
-6.575
-6.555
-6.565
-6.565
-6.57
-6.565
-6.575
-6.57
-6.565
-6.565
-6.56
-6.55
-6.545
-6.535
-6.55
-6.555
-6.565
-6.55
-6.54
-6.555
-6.595
-6.65
-6.71
-6.735
-6.745
-6.77
-6.75
-6.725
-6.725
-6.73
-6.74
-6.75
-6.765
-6.785
-6.825
-6.84
-6.84
-6.845
-6.835
-6.79
-6.75
-6.745
-6.745
-6.765
-6.795
-6.785
-6.76
-6.755
-6.725
-6.71
-6.7
-6.675
-6.675
-6.685
-6.67
-6.665
-6.64
-6.63
-6.64
-6.63
-6.61
-6.595
-6.56
-6.535
-6.525
-6.52
-6.515
-6.53
-6.54
-6.555
-6.58
-6.62
-6.595
-6.55
-6.525
-6.485
-6.48
-6.5
-6.535
-6.565
-6.61
-6.66
-6.685
-6.69
-6.665
-6.645
-6.595
-6.56
-6.54
-6.545
-6.54
-6.55
-6.59
-6.625
-6.655
-6.655
-6.63
-6.625
-6.63
-6.63
-6.65
-6.67
-6.71
-6.72
-6.71
-6.7
-6.69
-6.685
-6.67
-6.68
-6.71
-6.715
-6.71
-6.705
-6.705
-6.68
-6.67
-6.69
-6.68
-6.7
-6.705
-6.725
-6.73
-6.745
-6.75
-6.735
-6.73
-6.755
-6.75
-6.755
-6.74
-6.725
-6.705
-6.67
-6.69
-6.7
-6.73
-6.72
-6.695
-6.655
-6.65
-6.64
-6.645
-6.62
-6.6
-6.57
-6.53
-6.485
-6.455
-6.44
-6.445
-6.48
-6.52
-6.565
-6.605
-6.62
-6.625
-6.6
-6.575
-6.545
-6.555
-6.56
-6.59
-6.605
-6.63
-6.615
-6.62
-6.66
-6.685
-6.74
-6.775
-6.795
-6.79
-6.805
-6.815
-6.84
-6.83
-6.825
-6.84
-6.845
-6.85
-6.835
-6.81
-6.81
-6.795
-6.79
-6.79
-6.805
-6.87
-6.925
-6.955
-6.98
-6.96
-6.925
-6.89
-6.875
-6.88
-6.885
-6.88
-6.855
-6.78
-6.645
-6.48
-6.305
-6.185
-6.115
-6.115
-6.07
-5.95
-5.725
-5.48
-5.335
-5.31
-5.535
-5.99
-6.545
-7.075
-7.485
-7.74
-7.865
-7.9
-7.945
-7.99
-8.035
-8.075
-8.1
-8.12
-8.11
-8.105
-8.105
-8.075
-8.03
-7.98
-7.925
-7.865
-7.775
-7.635
-7.47
-7.305
-7.155
-7.04
-6.955
-6.905
-6.87
-6.86
-6.87
-6.855
-6.865
-6.87
-6.855
-6.835
-6.835
-6.835
-6.825
-6.8
-6.8
-6.795
-6.825
-6.845
-6.84
-6.855
-6.865
-6.88
-6.895
-6.895
-6.89
-6.88
-6.895
-6.92
-6.925
-6.945
-6.95
-6.97
-6.97
-7.01
-7.025
-7.035
-7.005
-6.985
-6.96
-6.96
-6.975
-6.985
-7.015
-7.04
-7.06
-7.075
-7.07
-7.055
-7.03
-7.015
-6.99
-6.975
-6.955
-6.94
-6.915
-6.895
-6.875
-6.88
-6.88
-6.86
-6.835
-6.825
-6.8
-6.795
-6.775
-6.76
-6.77
-6.745
-6.765
-6.78
-6.785
-6.775
-6.75
-6.745
-6.71
-6.705
-6.715
-6.75
-6.785
-6.835
-6.875
-6.915
-6.91
-6.92
-6.91
-6.895
-6.865
-6.85
-6.855
-6.885
-6.915
-6.955
-6.97
-7.0
-7.0
-6.975
-6.955
-6.965
-6.945
-6.945
-6.97
-6.97
-6.98
-6.945
-6.93
-6.93
-6.925
-6.925
-6.935
-6.95
-6.935
-6.94
-6.935
-6.96
-6.97
-7.0
-7.02
-7.02
-7.005
-6.995
-6.965
-6.945
-6.93
-6.92
-6.945
-6.96
-6.99
-7.01
-7.01
-7.005
-6.995
-6.98
-6.96
-6.945
-6.935
-6.925
-6.925
-6.92
-6.93
-6.92
-6.91
-6.9
-6.905
-6.885
-6.855
-6.825
-6.81
-6.81
-6.79
-6.785
-6.77
-6.765
-6.78
-6.795
-6.795
-6.815
-6.825
-6.85
-6.87
-6.885
-6.89
-6.88
-6.88
-6.86
-6.86
-6.845
-6.865
-6.875
-6.895
-6.925
-6.945
-6.955
-6.96
-6.97
-6.975
-7.005
-7.02
-7.055
-7.06
-7.055
-7.055
-7.055
-7.07
-7.065
-7.07
-7.075
-7.095
-7.09
-7.085
-7.115
-7.11
-7.09
-7.09
-7.075
-7.055
-7.055
-7.06
-7.075
-7.105
-7.125
-7.175
-7.225
-7.245
-7.24
-7.18
-7.065
-6.93
-6.765
-6.6
-6.48
-6.41
-6.42
-6.415
-6.38
-6.27
-6.075
-5.835
-5.605
-5.5
-5.54
-5.79
-6.22
-6.765
-7.25
-7.66
-7.89
-7.985
-8.015
-8.03
-8.05
-8.11
-8.19
-8.255
-8.285
-8.295
-8.265
-8.25
-8.235
-8.21
-8.185
-8.14
-8.075
-7.975
-7.88
-7.745
-7.595
-7.465
-7.325
-7.23
-7.145
-7.1
-7.07
-7.065
-7.05
-7.03
-6.98
-6.99
-6.99
-6.985
-6.99
-6.98
-6.965
-6.975
-6.98
-6.97
-6.96
-6.965
-6.96
-6.965
-6.985
-7.015
-7.035
-7.055
-7.065
-7.06
-7.055
-7.055
-7.045
-7.03
-7.04
-7.075
-7.105
-7.105
-7.12
-7.135
-7.135
-7.145
-7.125
-7.12
-7.11
-7.115
-7.12
-7.14
-7.135
-7.155
-7.195
-7.19
-7.19
-7.195
-7.185
-7.16
-7.15
-7.135
-7.13
-7.125
-7.125
-7.105
-7.1
-7.06
-7.04
-7.02
-7.005
-6.98
-6.95
-6.93
-6.9
-6.875
-6.865
-6.865
-6.865
-6.875
-6.87
-6.875
-6.845
-6.83
-6.82
-6.8
-6.81
-6.815
-6.825
-6.83
-6.825
-6.825
-6.815
-6.825
-6.83
-6.84
-6.845
-6.835
-6.83
-6.825
-6.81
-6.83
-6.845
-6.875
-6.885
-6.885
-6.875
-6.855
-6.84
-6.835
-6.825
-6.845
-6.845
-6.85
-6.855
-6.86
-6.885
-6.88
-6.88
-6.865
-6.835
-6.84
-6.835
-6.835
-6.85
-6.87
-6.89
-6.9
-6.92
-6.92
-6.89
-6.865
-6.835
-6.84
-6.835
-6.825
-6.83
-6.845
-6.865
-6.885
-6.885
-6.885
-6.88
-6.875
-6.855
-6.835
-6.81
-6.815
-6.8
-6.79
-6.775
-6.765
-6.76
-6.75
-6.74
-6.725
-6.68
-6.675
-6.67
-6.655
-6.63
-6.625
-6.595
-6.59
-6.595
-6.59
-6.59
-6.62
-6.64
-6.66
-6.685
-6.69
-6.71
-6.71
-6.685
-6.675
-6.66
-6.635
-6.615
-6.605
-6.64
-6.68
-6.7
-6.755
-6.785
-6.795
-6.805
-6.81
-6.82
-6.845
-6.85
-6.855
-6.86
-6.85
-6.85
-6.85
-6.83
-6.85
-6.865
-6.88
-6.895
-6.89
-6.875
-6.87
-6.86
-6.86
-6.86
-6.86
-6.87
-6.865
-6.885
-6.905
-6.93
-6.95
-6.96
-6.95
-6.9
-6.79
-6.645
-6.485
-6.345
-6.25
-6.21
-6.215
-6.205
-6.11
-5.92
-5.66
-5.425
-5.265
-5.29
-5.555
-6.035
-6.585
-7.1
-7.48
-7.715
-7.815
-7.885
-7.925
-7.965
-8.02
-8.05
-8.065
-8.06
-8.065
-8.06
-8.035
-7.99
-7.96
-7.9
-7.82
-7.71
-7.55
-7.4
-7.24
-7.095
-6.99
-6.915
-6.895
-6.87
-6.865
-6.86
-6.845
-6.83
-6.795
-6.775
-6.77
-6.775
-6.795
-6.795
-6.82
-6.82
-6.815
-6.805
-6.79
-6.795
-6.79
-6.805
-6.8
-6.805
-6.815
-6.815
-6.835
-6.86
-6.865
-6.865
-6.895
-6.905
-6.91
-6.91
-6.935
-6.92
-6.91
-6.93
-6.95
-6.96
-6.98
-6.975
-6.95
-6.94
-6.94
-6.935
-6.95
-6.975
-6.975
-6.975
-6.965
-6.96
-6.945
-6.92
-6.9
-6.89
-6.875
-6.865
-6.85
-6.825
-6.81
-6.79
-6.775
-6.76
-6.755
-6.73
-6.705
-6.69
-6.66
-6.64
-6.655
-6.64
-6.645
-6.655
-6.665
-6.66
-6.66
-6.66
-6.645
-6.655
-6.645
-6.64
-6.64
-6.655
-6.665
-6.66
-6.68
-6.67
-6.665
-6.67
-6.65
-6.65
-6.635
-6.65
-6.655
-6.645
-6.655
-6.68
-6.69
-6.7
-6.7
-6.695
-6.685
-6.68
-6.675
-6.665
-6.68
-6.7
-6.705
-6.715
-6.735
-6.73
-6.71
-6.7
-6.69
-6.69
-6.685
-6.705
-6.705
-6.695
-6.705
-6.715
-6.71
-6.705
-6.71
-6.7
-6.69
-6.695
-6.68
-6.67
-6.69
-6.675
-6.68
-6.675
-6.705
-6.68
-6.665
-6.635
-6.61
-6.57
-6.54
-6.53
-6.53
-6.53
-6.545
-6.525
-6.5
-6.495
-6.465
-6.475
-6.45
-6.415
-6.4
-6.385
-6.395
-6.4
-6.45
-6.485
-6.53
-6.575
-6.605
-6.575
-6.56
-6.51
-6.495
-6.455
-6.445
-6.435
-6.475
-6.515
-6.57
-6.585
-6.62
-6.625
-6.625
-6.61
-6.63
-6.64
-6.66
-6.675
-6.695
-6.72
-6.725
-6.73
-6.71
-6.73
-6.7
-6.69
-6.685
-6.7
-6.71
-6.73
-6.74
-6.74
-6.74
-6.735
-6.72
-6.73
-6.725
-6.73
-6.74
-6.76
-6.795
-6.805
-6.795
-6.75
-6.675
-6.55
-6.4
-6.24
-6.12
-6.07
-6.065
-6.055
-5.97
-5.795
-5.55
-5.305
-5.125
-5.09
-5.28
-5.67
-6.175
-6.705
-7.12
-7.41
-7.55
-7.61
-7.665
-7.74
-7.83
-7.885
-7.955
-7.98
-7.975
-7.97
-7.945
-7.91
-7.875
-7.845
-7.82
-7.775
-7.73
-7.62
-7.47
-7.3
-7.13
-6.975
-6.855
-6.79
-6.735
-6.705
-6.72
-6.72
-6.695
-6.675
-6.675
-6.67
-6.64
-6.63
-6.625
-6.63
-6.63
-6.625
-6.63
-6.645
-6.66
-6.67
-6.69
-6.675
-6.66
-6.655
-6.65
-6.675
-6.695
-6.705
-6.725
-6.74
-6.77
-6.765
-6.78
-6.79
-6.785
-6.775
-6.775
-6.795
-6.79
-6.805
-6.815
-6.82
-6.85
-6.845
-6.835
-6.835
-6.82
-6.81
-6.8
-6.79
-6.79
-6.785
-6.77
-6.785
-6.755
-6.74
-6.725
-6.705
-6.685
-6.66
-6.655
-6.64
-6.635
-6.635
-6.625
-6.6
-6.6
-6.6
-6.56
-6.555
-6.54
-6.535
-6.53
-6.525
-6.54
-6.55
-6.56
-6.56
-6.58
-6.575
-6.57
-6.57
-6.555
-6.57
-6.565
-6.565
-6.57
-6.565
-6.555
-6.58
-6.575
-6.61
-6.615
-6.605
-6.6
-6.585
-6.58
-6.575
-6.59
-6.585
-6.605
-6.61
-6.63
-6.65
-6.655
-6.66
-6.64
-6.62
-6.625
-6.61
-6.615
-6.615
-6.635
-6.64
-6.645
-6.66
-6.68
-6.67
-6.66
-6.67
-6.645
-6.65
-6.645
-6.64
-6.655
-6.665
-6.675
-6.68
-6.65
-6.66
-6.65
-6.635
-6.635
-6.62
-6.6
-6.585
-6.595
-6.6
-6.59
-6.555
-6.555
-6.525
-6.5
-6.475
-6.465
-6.42
-6.41
-6.41
-6.415
-6.41
-6.43
-6.445
-6.45
-6.47
-6.475
-6.5
-6.51
-6.53
-6.525
-6.53
-6.52
-6.495
-6.495
-6.485
-6.495
-6.49
-6.52
-6.545
-6.57
-6.6
-6.61
-6.63
-6.655
-6.675
-6.7
-6.71
-6.71
-6.71
-6.695
-6.69
-6.675
-6.665
-6.675
-6.695
-6.695
-6.715
-6.72
-6.715
-6.7
-6.7
-6.68
-6.67
-6.675
-6.65
-6.65
-6.66
-6.685
-6.71
-6.73
-6.76
-6.8
-6.8
-6.77
-6.69
-6.575
-6.435
-6.315
-6.195
-6.13
-6.115
-6.115
-6.085
-5.955
-5.705
-5.415
-5.165
-5.005
-5.025
-5.255
-5.68
-6.2
-6.69
-7.055
-7.28
-7.39
-7.43
-7.475
-7.54
-7.63
-7.7
-7.755
-7.765
-7.755
-7.725
-7.72
-7.695
-7.665
-7.63
-7.59
-7.545
-7.46
-7.35
-7.19
-7.015
-6.85
-6.735
-6.63
-6.575
-6.53
-6.52
-6.525
-6.515
-6.5
-6.48
-6.48
-6.465
-6.45
-6.445
-6.445
-6.45
-6.46
-6.465
-6.465
-6.455
-6.46
-6.455
-6.46
-6.455
-6.48
-6.475
-6.495
-6.51
-6.5
-6.51
-6.53
-6.525
-6.535
-6.555
-6.56
-6.56
-6.565
-6.57
-6.58
-6.61
-6.595
-6.58
-6.58
-6.585
-6.59
-6.6
-6.6
-6.59
-6.595
-6.605
-6.62
-6.63
-6.615
-6.6
-6.585
-6.56
-6.555
-6.53
-6.505
-6.48
-6.475
-6.465
-6.455
-6.43
-6.41
-6.37
-6.335
-6.34
-6.315
-6.295
-6.275
-6.27
-6.28
-6.285
-6.29
-6.285
-6.275
-6.295
-6.275
-6.27
-6.265
-6.25
-6.225
-6.23
-6.24
-6.265
-6.26
-6.265
-6.265
-6.255
-6.25
-6.24
-6.245
-6.23
-6.245
-6.235
-6.24
-6.265
-6.28
-6.285
-6.29
-6.305
-6.28
-6.255
-6.25
-6.225
-6.23
-6.25
-6.275
-6.28
-6.28
-6.29
-6.285
-6.285
-6.31
-6.29
-6.28
-6.27
-6.265
-6.26
-6.26
-6.27
-6.285
-6.3
-6.305
-6.31
-6.305
-6.3
-6.295
-6.29
-6.275
-6.27
-6.285
-6.285
-6.285
-6.275
-6.275
-6.265
-6.26
-6.24
-6.23
-6.215
-6.185
-6.195
-6.19
-6.175
-6.165
-6.15
-6.115
-6.1
-6.09
-6.065
-6.06
-6.04
-6.055
-6.035
-6.055
-6.07
-6.085
-6.125
-6.145
-6.155
-6.175
-6.17
-6.175
-6.155
-6.125
-6.1
-6.085
-6.08
-6.11
-6.135
-6.18
-6.215
-6.225
-6.235
-6.235
-6.235
-6.24
-6.255
-6.28
-6.29
-6.315
-6.335
-6.325
-6.325
-6.335
-6.315
-6.325
-6.325
-6.33
-6.33
-6.335
-6.335
-6.335
-6.32
-6.335
-6.325
-6.32
-6.32
-6.315
-6.33
-6.35
-6.36
-6.39
-6.425
-6.445
-6.465
-6.5
-6.455
-6.385
-6.29
-6.16
-6.02
-5.935
-5.905
-5.915
-5.91
-5.85
-5.69
-5.45
-5.155
-4.895
-4.73
-4.755
-4.985
-5.375
-5.81
-6.235
-6.585
-6.8
-6.905
-6.98
-7.065
-7.165
-7.24
-7.31
-7.37
-7.425
-7.41
-7.39
-7.39
-7.39
-7.37
-7.355
-7.33
-7.295
-7.255
-7.165
-7.05
-6.895
-6.72
-6.6
-6.465
-6.405
-6.365
-6.335
-6.33
-6.32
-6.305
-6.27
-6.26
-6.23
-6.23
-6.25
-6.245
-6.275
-6.28
-6.285
-6.295
-6.28
-6.27
-6.27
-6.27
-6.31
-6.305
-6.315
-6.315
-6.325
-6.325
-6.345
-6.365
-6.365
-6.355
-6.36
-6.37
-6.385
-6.39
-6.42
-6.435
-6.445
-6.45
-6.46
-6.465
-6.46
-6.455
-6.46
-6.46
-6.49
-6.49
-6.485
-6.49
-6.495
-6.505
-6.495
-6.495
-6.47
-6.475
-6.435
-6.435
-6.41
-6.405
-6.385
-6.39
-6.405
-6.385
-6.38
-6.355
-6.32
-6.295
-6.28
-6.255
-6.235
-6.23
-6.23
-6.23
-6.23
-6.24
-6.215
-6.225
-6.21
-6.205
-6.21
-6.195
-6.19
-6.19
-6.19
-6.195
-6.195
-6.205
-6.205
-6.205
-6.2
-6.205
-6.205
-6.195
-6.205
-6.205
-6.215
-6.215
-6.235
-6.25
-6.255
-6.23
-6.215
-6.2
-6.19
-6.19
-6.18
-6.175
-6.18
-6.185
-6.2
-6.205
-6.21
-6.195
-6.19
-6.185
-6.175
-6.17
-6.15
-6.135
-6.15
-6.17
-6.195
-6.215
-6.24
-6.26
-6.25
-6.245
-6.225
-6.24
-6.24
-6.21
-6.23
-6.24
-6.275
-6.285
-6.3
-6.315
-6.32
-6.295
-6.275
-6.265
-6.28
-6.28
-6.31
-6.335
-6.37
-6.375
-6.375
-6.365
-6.35
-6.335
-6.315
-6.32
-6.31
-6.32
-6.34
-6.33
-6.35
-6.345
-6.35
-6.355
-6.355
-6.345
-6.345
-6.345
-6.335
-6.34
-6.335
-6.35
-6.355
-6.37
-6.355
-6.345
-6.34
-6.335
-6.355
-6.355
-6.385
-6.425
-6.48
-6.53
-6.56
-6.5
-6.425
-6.31
-6.21
-6.085
-6.015
-5.98
-5.915
-5.825
-5.63
-5.37
-5.08
-4.86
-4.785
-4.875
-5.165
-5.58
-6.03
-6.425
-6.71
-6.87
-6.965
-7.04
-7.135
-7.25
-7.345
-7.43
-7.485
-7.48
-7.475
-7.465
-7.47
-7.46
-7.45
-7.44
-7.41
-7.375
-7.28
-7.155
-6.995
-6.815
-6.655
-6.53
-6.46
-6.4
-6.385
-6.39
-6.38
-6.39
-6.375
-6.355
-6.34
-6.32
-6.33
-6.34
-6.335
-6.34
-6.36
-6.365
-6.375
-6.37
-6.38
-6.375
-6.375
-6.375
-6.4
-6.405
-6.41
-6.425
-6.44
-6.45
-6.47
-6.485
-6.51
-6.505
-6.505
-6.51
-6.52
-6.525
-6.545
-6.575
-6.59
-6.595
-6.59
-6.6
-6.615
-6.6
-6.62
-6.59
-6.59
-6.555
-6.58
-6.565
-6.575
-6.575
-6.57
-6.565
-6.555
-6.54
-6.505
-6.48
-6.465
-6.45
-6.44
-6.425
-6.395
-6.395
-6.385
-6.38
-6.375
-6.36
-6.355
-6.355
-6.33
-6.33
-6.325
-6.34
-6.34
-6.355
-6.35
-6.35
-6.35
-6.335
-6.33
-6.305
-6.31
-6.31
-6.33
-6.34
-6.34
-6.37
-6.385
-6.37
-6.365
-6.36
-6.36
-6.335
-6.345
-6.35
-6.365
-6.36
-6.38
-6.39
-6.405
-6.42
-6.42
-6.43
-6.41
-6.405
-6.405
-6.38
-6.395
-6.385
-6.405
-6.415
-6.415
-6.425
-6.43
-6.425
-6.415
-6.405
-6.405
-6.385
-6.4
-6.395
-6.405
-6.405
-6.41
-6.415
-6.41
-6.435
-6.425
-6.42
-6.415
-6.41
-6.415
-6.41
-6.42
-6.415
-6.415
-6.42
-6.425
-6.42
-6.41
-6.415
-6.425
-6.395
-6.41
-6.4
-6.415
-6.41
-6.43
-6.415
-6.43
-6.44
-6.425
-6.415
-6.405
-6.38
-6.4
-6.405
-6.395
-6.415
-6.4
-6.4
-6.39
-6.355
-6.34
-6.34
-6.305
-6.295
-6.265
-6.265
-6.255
-6.245
-6.24
-6.24
-6.22
-6.215
-6.21
-6.2
-6.19
-6.205
-6.23
-6.26
-6.29
-6.335
-6.355
-6.355
-6.37
-6.34
-6.325
-6.285
-6.28
-6.25
-6.255
-6.275
-6.325
-6.375
-6.42
-6.445
-6.485
-6.485
-6.465
-6.46
-6.485
-6.5
-6.52
-6.535
-6.555
-6.585
-6.58
-6.58
-6.565
-6.57
-6.54
-6.535
-6.535
-6.54
-6.55
-6.555
-6.555
-6.57
-6.58
-6.585
-6.595
-6.61
-6.62
-6.65
-6.675
-6.695
-6.73
-6.725
-6.66
-6.56
-6.435
-6.325
-6.21
-6.135
-6.145
-6.13
-6.075
-5.92
-5.7
-5.42
-5.165
-5.01
-5.035
-5.265
-5.675
-6.18
-6.645
-6.975
-7.185
-7.305
-7.39
-7.465
-7.57
-7.655
-7.725
-7.765
-7.78
-7.78
-7.77
-7.76
-7.74
-7.715
-7.65
-7.575
-7.48
-7.345
-7.215
-7.04
-6.895
-6.775
-6.695
-6.635
-6.61
-6.59
-6.6
-6.6
-6.595
-6.585
-6.58
-6.575
-6.575
-6.575
-6.565
-6.545
-6.545
-6.55
-6.555
-6.56
-6.575
-6.595
-6.595
-6.61
-6.625
-6.625
-6.63
-6.64
-6.63
-6.625
-6.65
-6.675
-6.685
-6.7
-6.745
-6.74
-6.745
-6.77
-6.765
-6.76
-6.75
-6.775
-6.78
-6.785
-6.8
-6.81
-6.81
-6.805
-6.805
-6.785
-6.79
-6.76
-6.75
-6.73
-6.735
-6.73
-6.74
-6.745
-6.73
-6.715
-6.7
-6.68
-6.67
-6.64
-6.62
-6.595
-6.58
-6.555
-6.55
-6.545
-6.54
-6.525
-6.525
-6.52
-6.505
-6.495
-6.485
-6.495
-6.5
-6.49
-6.485
-6.475
-6.495
-6.495
-6.49
-6.5
-6.51
-6.515
-6.495
-6.5
-6.505
-6.51
-6.515
-6.53
-6.555
-6.57
-6.575
-6.565
-6.545
-6.545
-6.535
-6.53
-6.53
-6.545
-6.555
-6.56
-6.56
-6.6
-6.605
-6.59
-6.585
-6.59
-6.6
-6.585
-6.585
-6.585
-6.6
-6.6
-6.615
-6.625
-6.63
-6.63
-6.63
-6.625
-6.625
-6.61
-6.615
-6.61
-6.61
-6.615
-6.625
-6.64
-6.655
-6.645
-6.625
-6.62
-6.61
-6.615
-6.61
-6.625
-6.625
-6.64
-6.625
-6.64
-6.615
-6.595
-6.575
-6.54
-6.505
-6.495
-6.485
-6.475
-6.475
-6.46
-6.465
-6.435
-6.435
-6.42
-6.405
-6.385
-6.385
-6.36
-6.36
-6.38
-6.415
-6.445
-6.475
-6.515
-6.54
-6.555
-6.53
-6.525
-6.505
-6.47
-6.45
-6.43
-6.43
-6.45
-6.485
-6.525
-6.575
-6.6
-6.615
-6.635
-6.615
-6.625
-6.645
-6.66
-6.675
-6.695
-6.71
-6.71
-6.715
-6.73
-6.71
-6.715
-6.68
-6.675
-6.685
-6.695
-6.69
-6.69
-6.71
-6.715
-6.725
-6.715
-6.715
-6.715
-6.715
-6.735
-6.765
-6.815
-6.855
-6.89
-6.86
-6.785
-6.68
-6.53
-6.395
-6.295
-6.25
-6.26
-6.22
-6.11
-5.925
-5.655
-5.375
-5.175
-5.155
-5.32
-5.67
-6.15
-6.64
-7.035
-7.315
-7.48
-7.58
-7.66
-7.73
-7.8
-7.89
-7.92
-7.935
-7.92
-7.915
-7.895
-7.88
-7.86
-7.84
-7.82
-7.79
-7.685
-7.585
-7.415
-7.225
-7.03
-6.885
-6.775
-6.735
-6.715
-6.725
-6.74
-6.75
-6.74
-6.72
-6.71
-6.68
-6.665
-6.655
-6.63
-6.64
-6.65
-6.665
-6.675
-6.685
-6.68
-6.685
-6.69
-6.685
-6.71
-6.7
-6.735
-6.74
-6.755
-6.78
-6.795
-6.81
-6.82
-6.835
-6.845
-6.845
-6.845
-6.85
-6.85
-6.855
-6.855
-6.87
-6.88
-6.885
-6.885
-6.905
-6.905
-6.89
-6.875
-6.865
-6.85
-6.87
-6.88
-6.885
-6.895
-6.885
-6.865
-6.86
-6.84
-6.805
-6.77
-6.765
-6.735
-6.735
-6.715
-6.7
-6.695
-6.67
-6.67
-6.655
-6.64
-6.625
-6.61
-6.585
-6.58
-6.585
-6.595
-6.61
-6.615
-6.605
-6.615
-6.605
-6.585
-6.57
-6.565
-6.54
-6.55
-6.565
-6.575
-6.59
-6.61
-6.615
-6.61
-6.635
-6.645
-6.63
-6.625
-6.615
-6.605
-6.605
-6.615
-6.64
-6.65
-6.665
-6.67
-6.665
-6.685
-6.67
-6.65
-6.655
-6.65
-6.67
-6.675
-6.685
-6.69
-6.69
-6.685
-6.685
-6.695
-6.665
-6.665
-6.66
-6.645
-6.645
-6.645
-6.645
-6.66
-6.69
-6.7
-6.705
-6.7
-6.7
-6.685
-6.66
-6.66
-6.67
-6.665
-6.655
-6.68
-6.695
-6.695
-6.68
-6.69
-6.69
-6.69
-6.68
-6.65
-6.65
-6.645
-6.625
-6.605
-6.59
-6.57
-6.56
-6.55
-6.535
-6.52
-6.495
-6.475
-6.465
-6.46
-6.45
-6.455
-6.455
-6.44
-6.445
-6.44
-6.445
-6.46
-6.49
-6.505
-6.535
-6.56
-6.575
-6.575
-6.56
-6.55
-6.54
-6.52
-6.495
-6.48
-6.51
-6.54
-6.57
-6.605
-6.63
-6.655
-6.67
-6.66
-6.67
-6.685
-6.7
-6.705
-6.715
-6.715
-6.735
-6.73
-6.745
-6.74
-6.735
-6.73
-6.75
-6.75
-6.73
-6.725
-6.72
-6.71
-6.72
-6.72
-6.735
-6.74
-6.75
-6.74
-6.775
-6.765
-6.765
-6.775
-6.79
-6.815
-6.855
-6.865
-6.845
-6.81
-6.735
-6.62
-6.51
-6.385
-6.315
-6.285
-6.275
-6.255
-6.175
-6.0
-5.75
-5.46
-5.2
-5.07
-5.1
-5.325
-5.705
-6.17
-6.62
-6.955
-7.18
-7.31
-7.39
-7.485
-7.585
-7.685
-7.78
-7.835
-7.84
-7.835
-7.81
-7.785
-7.8
-7.78
-7.78
-7.77
-7.735
-7.675
-7.585
-7.44
-7.25
-7.07
-6.92
-6.805
-6.755
-6.71
-6.695
-6.705
-6.715
-6.725
-6.72
-6.685
-6.655
-6.635
-6.615
-6.61
-6.62
-6.61
-6.61
-6.61
-6.63
-6.64
-6.655
-6.665
-6.67
-6.625
-6.625
-6.635
-6.65
-6.67
-6.69
-6.71
-6.725
-6.725
-6.74
-6.76
-6.74
-6.75
-6.76
-6.74
-6.755
-6.76
-6.79
-6.8
-6.825
-6.83
-6.835
-6.845
-6.845
-6.825
-6.835
-6.815
-6.82
-6.835
-6.835
-6.845
-6.83
-6.83
-6.815
-6.81
-6.795
-6.775
-6.77
-6.745
-6.725
-6.7
-6.695
-6.69
-6.675
-6.665
-6.64
-6.625
-6.625
-6.615
-6.58
-6.58
-6.555
-6.54
-6.525
-6.535
-6.535
-6.525
-6.55
-6.54
-6.52
-6.49
-6.49
-6.475
-6.48
-6.49
-6.49
-6.505
-6.525
-6.525
-6.525
-6.52
-6.53
-6.515
-6.5
-6.48
-6.49
-6.5
-6.515
-6.54
-6.545
-6.545
-6.56
-6.575
-6.56
-6.55
-6.525
-6.525
-6.515
-6.535
-6.545
-6.54
-6.555
-6.56
-6.57
-6.575
-6.58
-6.565
-6.585
-6.58
-6.59
-6.585
-6.59
-6.585
-6.58
-6.575
-6.575
-6.575
-6.585
-6.575
-6.57
-6.56
-6.545
-6.535
-6.485
-6.5
-6.5
-6.5
-6.445
-6.39
-6.365
-6.32
-6.29
-6.255
-6.225
-6.22
-6.215
-6.215
-6.22
-6.245
-6.27
-6.31
-6.355
-6.41
-6.46
-6.53
-6.595
-6.69
-6.765
-6.82
-6.895
-6.925
-6.98
-6.995
-7.015
-7.02
-6.99
-7.0
-6.995
-7.015
-7.04
-7.03
-7.025
-7.055
-7.025
-7.01
-6.965
-6.95
-6.93
-6.94
-6.99
-7.0
-7.055
-7.13
-7.22
-7.22
-7.175
-7.145
-7.19
-7.245
-7.25
-7.19
-7.195
-7.28
-7.31
-7.305
-7.29
-7.225
-7.23
-7.245
-7.27
-7.3
-7.32
-7.305
-7.335
-7.335
-7.34
-7.34
-7.36
-7.4
-7.515
-7.585
-7.625
-7.63
-7.605
-7.49
-7.33
-7.245
-7.165
-7.13
-7.135
-7.165
-7.185
-7.09
-6.92
-6.625
-6.31
-5.985
-5.785
-5.745
-5.895
-6.255
-6.715
-7.175
-7.54
-7.8
-7.975
-8.095
-8.195
-8.275
-8.34
-8.365
-8.345
-8.345
-8.31
-8.255
-8.2
-8.125
-8.04
-7.91
-7.82
-7.71
-7.61
-7.47
-7.3
-7.115
-6.975
-6.86
-6.805
-6.825
-6.85
-6.88
-6.915
-6.93
-6.93
-6.945
-6.98
-6.995
-7.01
-7.03
-7.05
-7.08
-7.1
-7.08
-7.075
-7.06
-7.04
-7.06
-7.085
-7.06
-7.05
-7.035
-7.035
-7.035
-7.03
-7.05
-7.04
-7.045
-7.045
-7.04
-7.045
-7.08
-7.11
-7.145
-7.18
-7.21
-7.23
-7.25
-7.27
-7.275
-7.29
-7.31
-7.32
-7.325
-7.315
-7.315
-7.32
-7.325
-7.3
-7.25
-7.2
-7.19
-7.2
-7.21
-7.2
-7.19
-7.165
-7.16
-7.14
-7.12
-7.085
-7.09
-7.08
-7.06
-7.04
-7.07
-7.08
-7.07
-7.07
-7.085
-7.1
-7.095
-7.08
-7.09
-7.09
-7.075
-7.105
-7.125
-7.12
-7.13
-7.14
-7.135
-7.165
-7.17
-7.17
-7.145
-7.15
-7.14
-7.17
-7.165
-7.17
-7.18
-7.16
-7.19
-7.195
-7.19
-7.175
-7.165
-7.16
-7.155
-7.165
-7.15
-7.15
-7.155
-7.13
-7.145
-7.165
-7.155
-7.16
-7.15
-7.14
-7.115
-7.12
-7.085
-7.085
-7.105
-7.095
-7.125
-7.145
-7.13
-7.115
-7.11
-7.11
-7.1
-7.075
-7.075
-7.08
-7.07
-7.065
-7.07
-7.075
-7.065
-7.055
-7.04
-7.005
-6.96
-6.95
-6.91
-6.9
-6.885
-6.895
-6.925
-6.905
-6.89
-6.84
-6.79
-6.75
-6.695
-6.67
-6.65
-6.65
-6.64
-6.635
-6.65
-6.63
-6.605
-6.59
-6.545
-6.495
-6.475
-6.485
-6.51
-6.53
-6.525
-6.555
-6.6
-6.625
-6.66
-6.66
-6.605
-6.535
-6.49
-6.45
-6.465
-6.465
-6.485
-6.515
-6.56
-6.59
-6.64
-6.665
-6.665
-6.68
-6.69
-6.7
-6.73
-6.755
-6.765
-6.775
-6.74
-6.735
-6.705
-6.675
-6.64
-6.63
-6.64
-6.555
-6.5
-6.45
-6.42
-6.42
-6.43
-6.435
-6.455
-6.45
-6.44
-6.44
-6.45
-6.495
-6.53
-6.585
-6.665
-6.735
-6.8
-6.87
-6.875
-6.83
-6.76
-6.635
-6.525
-6.455
-6.41
-6.375
-6.325
-6.14
-5.91
-5.585
-5.295
-5.14
-5.13
-5.305
-5.76
-5.925
-6.215
-6.415
-6.53
-6.59
-6.625
-6.665
-6.73
-6.77
-6.8
-6.765
-6.65
-6.58
-6.505
-6.435
-6.37
-6.33
-6.28
-6.22
-6.16
-6.11
-6.055
-5.95
-5.85
-5.745
-5.67
-5.645
-5.635
-5.645
-5.705
-5.75
-5.8
-5.87
-5.92
-5.955
-5.9
-6.07
-6.15
-6.225
-6.285
-6.34
-6.375
-6.395
-6.425
-6.455
-6.505
-6.5
-6.49
-6.45
-6.485
-6.505
-6.51
-6.545
-6.565
-6.59
-6.575
-6.58
-6.595
-6.62
-6.635
-6.635
-6.6
-6.655
-6.695
-6.745
-6.725
-6.7
-6.67
-6.71
-6.695
-6.685
-6.695
-6.68
-6.68
-6.68
-6.68
-6.67
-6.655
-6.685
-6.71
-6.715
-6.695
-6.71
-6.735
-6.75
-6.805
-6.835
-6.875
-6.885
-6.895
-6.915
-6.935
-6.9
-6.845
-6.815
-6.805
-6.82
-6.81
-6.79
-6.79
-6.78
-6.77
-6.795
-6.845
-6.86
-6.845
-6.845
-6.845
-6.87
-6.835
-6.825
-6.845
-6.875
-6.89
-6.87
-6.86
-6.84
-6.825
-6.79
-6.735
-6.665
-6.605
-6.54
-6.515
-6.455
-6.42
-6.38
-6.305
-6.24
-6.175
-6.145
-6.12
-6.09
-6.055
-5.945
-5.89
-5.855
-5.855
-5.935
-6.05
-6.105
-6.175
-6.235
-6.225
-6.335
-6.375
-6.43
-6.48
-6.51
-6.53
-6.545
-6.53
-6.51
-6.485
-6.45
-6.44
-6.42
-6.385
-6.385
-6.375
-6.35
-6.35
-6.36
-6.395
-6.395
-6.39
-6.405
-6.42
-6.45
-6.45
-6.49
-6.53
-6.56
-6.55
-6.565
-6.585
-6.585
-6.55
-6.5
-6.48
-6.415
-6.39
-6.38
-6.345
-6.34
-6.325
-6.315
-6.32
-6.335
-6.33
-6.355
-6.355
-6.365
-6.415
-6.455
-6.515
-6.56
-6.615
-6.67
-6.76
-6.745
-6.76
-6.74
-6.72
-6.715
-6.705
-6.72
-6.775
-6.825
-6.885
-6.925
-6.955
-6.97
-6.975
-6.995
-6.98
-7.005
-7.025
-7.04
-7.04
-7.055
-7.085
-7.07
-7.06
-7.07
-7.07
-7.1
-7.13
-7.175
-7.185
-7.195
-7.2
-7.17
-7.155
-7.16
-7.2
-7.2
-7.18
-7.19
-7.205
-7.22
-7.24
-7.255
-7.275
-7.255
-7.185
-7.095
-6.985
-6.87
-6.75
-6.7
-6.685
-6.66
-6.635
-6.525
-6.32
-6.035
-5.73
-5.52
-5.44
-5.565
-5.865
-6.305
-6.775
-7.16
-7.48
-7.69
-7.82
-7.92
-8.01
-8.11
-8.15
-8.15
-8.15
-8.14
-8.11
-8.11
-8.09
-8.06
-8.04
-8.0
-7.91
-7.775
-7.605
-7.425
-7.25
-7.13
-7.045
-6.94
-6.91
-6.89
-6.86
-6.86
-6.87
-6.875
-6.875
-6.895
-6.875
-6.84
-6.79
-6.75
-6.795
-6.83
-6.88
-6.865
-6.87
-6.865
-6.885
-6.875
-6.85
-6.845
-6.835
-6.885
-6.905
-6.935
-6.965
-7.025
-7.055
-7.095
-7.115
-7.12
-7.125
-7.115
-7.105
-7.1
-7.09
-7.07
-7.05
-7.045
-7.04
-7.02
-7.015
-6.985
-6.94
-6.93
-6.91
-6.915
-6.855
-6.83
-6.83
-6.8
-6.755
-6.72
-6.65
-6.595
-6.55
-6.575
-6.565
-6.545
-6.535
-6.53
-6.51
-6.49
-6.46
-6.425
-6.395
-6.375
-6.365
-6.33
-6.33
-6.3
-6.25
-6.2
-6.07
-5.855
-5.63
-5.46
-5.395
-5.31
-5.255
-5.235
-5.23
-5.275
-5.34
-5.45
-5.535
-5.555
-5.59
-5.595
-5.625
-5.605
-5.6
-5.54
-5.485
-5.435
-5.4
-5.375
-5.345
-5.295
-5.315
-5.325
-5.355
-5.405
-5.48
-5.545
-5.5
-5.66
-5.725
-5.805
-5.9
-5.985
-6.075
-6.18
-6.275
-6.335
-6.395
-6.44
-6.515
-6.545
-6.575
-6.615
-6.65
-6.665
-6.68
-6.72
-6.76
-6.76
-6.745
-6.73
-6.71
-6.69
-6.7
-6.765
-6.78
-6.77
-6.76
-6.735
-6.72
-6.7
-6.73
-6.73
-6.735
-6.795
-6.855
-6.855
-6.775
-6.75
-6.785
-6.86
-6.865
-6.85
-6.84
-6.825
-6.795
-6.775
-6.73
-6.755
-6.865
-6.905
-6.92
-6.88
-6.85
-6.85
-6.865
-6.905
-6.975
-6.995
-7.04
-7.08
-7.12
-7.16
-7.21
-7.22
-7.215
-7.23
-7.3
-7.345
-7.315
-7.365
-7.33
-7.29
-7.255
-7.23
-7.215
-7.235
-7.3
-7.345
-7.355
-7.37
-7.35
-7.315
-7.27
-7.23
-7.185
-7.135
-7.095
-7.045
-7.005
-6.925
-6.855
-6.825
-6.73
-6.6
-6.465
-6.36
-6.305
-6.28
-6.295
-6.35
-6.455
-6.58
-6.655
-6.705
-6.68
-6.84
-6.915
-6.97
-7.01
-7.065
-7.13
-7.145
-7.135
-7.05
-6.915
-6.755
-6.59
-6.455
-6.4
-6.4
-6.42
-6.43
-6.365
-6.18
-5.915
-5.63
-5.38
-5.29
-5.38
-5.65
-6.055
-6.56
-7.095
-7.505
-7.83
-8.0
-8.12
-8.215
-8.29
-8.365
-8.445
-8.535
-8.575
-8.57
-8.54
-8.51
-8.52
-8.505
-8.465
-8.425
-8.355
-8.285
-8.17
-8.025
-7.865
-7.705
-7.58
-7.495
-7.46
-7.45
-7.47
-7.495
-7.495
-7.475
-7.46
-7.47
-7.475
-7.54
-7.585
-7.61
-7.61
-7.625
-7.66
-7.655
-7.67
-7.665
-7.65
-7.64
-7.66
-7.675
-7.725
-7.76
-7.78
-7.805
-7.825
-7.845
-7.825
-7.83
-7.795
-7.775
-7.825
-7.86
-7.905
-7.915
-7.96
-7.97
-7.97
-7.965
-7.95
-7.93
-7.915
-7.915
-7.915
-7.955
-7.925
-7.915
-7.89
-7.89
-7.845
-7.795
-7.75
-7.72
-7.71
-7.68
-7.675
-7.635
-7.64
-7.645
-7.63
-7.61
-7.62
-7.62
-7.65
-7.69
-7.73
-7.765
-7.745
-7.735
-7.685
-7.665
-7.635
-7.635
-7.62
-7.635
-7.645
-7.62
-7.6
-7.58
-7.56
-7.575
-7.58
-7.59
-7.6
-7.62
-7.64
-7.635
-7.6
-7.57
-7.57
-7.525
-7.545
-7.55
-7.545
-7.55
-7.56
-7.565
-7.58
-7.59
-7.61
-7.625
-7.62
-7.585
-7.575
-7.59
-7.57
-7.595
-7.61
-7.63
-7.625
-7.62
-7.605
-7.605
-7.605
-7.61
-7.64
-7.66
-7.675
-7.695
-7.685
-7.675
-7.64
-7.59
-7.545
-7.51
-7.525
-7.41
-7.37
-7.365
-7.39
-7.415
-7.45
-7.5
-7.53
-7.535
-7.53
-7.53
-7.51
-7.505
-7.51
-7.5
-7.475
-7.415
-7.395
-7.37
-7.345
-7.345
-7.34
-7.315
-7.28
-7.27
-7.255
-7.24
-7.23
-7.215
-7.205
-7.16
-7.125
-7.115
-7.095
-7.09
-7.11
-7.01
-6.925
-6.835
-6.635
-6.325
-5.98
-5.76
-5.615
-5.475
-5.33
-5.2
-5.12
-5.09
-5.165
-5.245
-5.36
-5.45
-5.53
-5.59
-5.645
-5.705
-5.715
-5.72
-5.725
-5.745
-5.73
-5.775
-5.79
-5.8
-5.825
-5.85
-5.875
-5.9
-5.96
-6.01
-5.985
-6.135
-6.195
-6.27
-6.365
-6.47
-6.57
-6.635
-6.72
-6.805
-6.86
-6.925
-6.975
-7.015
-7.065
-7.08
-7.13
-7.175
-7.185
-7.155
-7.08
-6.96
-6.82
-6.66
-6.535
-6.46
-6.46
-6.495
-6.49
-6.38
-6.185
-5.925
-5.685
-5.515
-5.51
-5.75
-6.2
-6.795
-7.365
-7.75
-8.005
-8.165
-8.24
-8.295
-8.345
-8.37
-8.4
-8.43
-8.43
-8.44
-8.505
-8.515
-8.51
-8.425
-8.415
-8.4
-8.38
-8.31
-8.21
-8.095
-7.97
-7.865
-7.805
-7.8
-7.785
-7.77
-7.78
-7.755
-7.71
-7.645
-7.66
-7.67
-7.64
-7.625
-7.56
-7.55
-7.52
-7.54
-7.565
-7.7
-7.76
-7.765
-7.765
-7.715
-7.61
-7.46
-7.37
-7.39
-7.52
-7.6
-7.685
-7.755
-7.785
-7.72
-7.62
-7.545
-7.505
-7.485
-7.47
-7.39
-7.355
-7.3
-7.29
-7.235
-7.175
-7.125
-7.115
-7.15
-7.115
-7.195
-7.26
-7.35
-7.375
-7.435
-7.47
-7.525
-7.575
-7.595
-7.565
-7.515
-7.465
-7.415
-7.41
-7.38
-7.36
-7.375
-7.38
-7.385
-7.365
-7.35
-7.34
-7.355
-7.32
-7.29
-7.255
-7.25
-7.23
-7.235
-7.23
-7.22
-7.23
-7.28
-7.32
-7.37
-7.36
-7.405
-7.42
-7.46
-7.48
-7.5
-7.515
-7.53
-7.545
-7.55
-7.575
-7.575
-7.585
-7.6
-7.615
-7.635
-7.675
-7.695
-7.735
-7.755
-7.8
-7.805
-7.825
-7.855
-7.895
-7.9
-7.91
-7.945
-7.985
-8.0
-8.02
-8.04
-8.045
-8.06
-8.05
-8.035
-8.04
-8.045
-8.055
-8.055
-8.055
-8.075
-8.11
-8.12
-8.1
-8.09
-8.08
-8.065
-8.065
-8.06
-8.09
-8.095
-8.12
-8.135
-8.125
-8.145
-8.125
-8.085
-8.07
-8.045
-8.035
-8.025
-8.025
-8.03
-8.05
-8.045
-8.04
-8.01
-7.985
-7.96
-7.94
-7.9
-7.89
-7.89
-7.9
-7.905
-7.91
-7.925
-7.93
-7.925
-7.93
-7.93
-7.925
-7.925
-7.94
-7.94
-7.945
-7.965
-7.955
-7.965
-8.005
-8.035
-8.035
-8.06
-8.075
-8.08
-8.065
-8.05
-8.03
-7.99
-7.96
-7.925
-7.925
-7.93
-7.935
-7.935
-7.945
-7.965
-7.99
-7.955
-7.945
-7.97
-7.97
-7.985
-8.03
-8.055
-8.04
-8.04
-8.045
-8.03
-8.035
-7.985
-7.99
-8.0
-8.0
-8.015
-8.01
-8.025
-8.035
-8.04
-8.045
-8.105
-8.115
-8.115
-8.105
-8.125
-8.155
-8.165
-8.2
-8.255
-8.275
-8.255
-8.16
-8.03
-7.86
-7.76
-7.69
-7.69
-7.665
-7.62
-7.475
-7.235
-6.88
-6.545
-6.285
-6.18
-6.315
-6.665
-7.19
-7.735
-8.17
-8.485
-8.65
-8.775
-8.855
-8.955
-9.04
-9.135
-9.19
-9.215
-9.2
-9.19
-9.165
-9.135
-9.105
-9.06
-8.995
-8.915
-8.805
-8.625
-8.475
-8.215
-8.0
-7.82
-7.59
-7.35
-7.15
-7.015
-6.905
-6.82
-6.74
-6.7
-6.69
-6.715
-6.795
-6.85
-6.915
-6.945
-6.95
-6.985
-7.005
-7.02
-7.03
-7.02
-6.99
-6.98
-6.955
-6.945
-6.9
-6.88
-6.86
-6.88
-6.89
-6.895
-6.895
-6.905
-6.895
-6.965
-7.01
-7.06
-7.14
-7.22
-7.315
-7.375
-7.415
-7.495
-7.54
-7.615
-7.685
-7.745
-7.83
-7.85
-7.905
-7.93
-7.955
-7.965
-7.955
-7.965
-7.965
-7.945
-7.945
-7.945
-7.965
-7.96
-7.95
-7.94
-7.915
-7.905
-7.89
-7.87
-7.875
-7.92
-7.89
-7.88
-7.845
-7.845
-7.915
-7.93
-7.9
-7.88
-7.865
-7.845
-7.88
-7.875
-7.87
-7.88
-7.86
-7.86
-7.91
-7.96
-7.99
-7.985
-7.955
-7.985
-8.0
-8.055
-8.07
-8.1
-8.16
-8.23
-8.27
-8.3
-8.31
-8.32
-8.345
-8.335
-8.315
-8.325
-8.325
-8.36
-8.37
-8.37
-8.35
-8.35
-8.34
-8.36
-8.355
-8.35
-8.315
-8.31
-8.335
-8.34
-8.335
-8.345
-8.395
-8.425
-8.4
-8.33
-8.29
-8.3
-8.3
-8.265
-8.245
-8.245
-8.235
-8.195
-8.17
-8.135
-8.055
-8.02
-7.965
-7.885
-7.8
-7.72
-7.74
-7.62
-7.605
-7.595
-7.58
-7.54
-7.525
-7.545
-7.625
-7.74
-7.79
-7.855
-7.885
-7.9
-7.895
-7.925
-7.965
-7.97
-7.985
-7.995
-7.95
-7.93
-7.89
-7.87
-7.83
-7.785
-7.755
-7.72
-7.69
-7.695
-7.7
-7.715
-7.76
-7.785
-7.79
-7.78
-7.77
-7.735
-7.725
-7.725
-7.72
-7.735
-7.75
-7.8
-7.835
-7.89
-7.945
-7.97
-7.99
-8.01
-8.03
-8.04
-8.075
-8.09
-8.11
-8.09
-8.09
-8.09
-8.09
-8.11
-8.12
-8.13
-8.14
-8.155
-8.16
-8.18
-8.18
-8.22
-8.245
-8.26
-8.265
-8.28
-8.275
-8.28
-8.32
-8.325
-8.38
-8.43
-8.51
-8.56
-8.605
-8.58
-8.49
-8.375
-8.24
-8.1
-8.01
-7.985
-7.99
-7.955
-7.88
-7.68
-7.395
-7.105
-6.91
-6.855
-7.01
-7.335
-7.79
-8.265
-8.665
-8.96
-9.075
-9.145
-9.19
-9.28
-9.345
-9.41
-9.465
-9.455
-9.46
-9.445
-9.435
-9.44
-9.44
-9.43
-9.4
-9.355
-9.275
-9.165
-9.025
-8.845
-8.685
-8.525
-8.415
-8.385
-8.37
-8.365
-8.37
-8.365
-8.35
-8.315
-8.265
-8.215
-8.205
-8.185
-8.185
-8.195
-8.21
-8.215
-8.22
-8.215
-8.205
-8.205
-8.19
-8.19
-8.18
-8.155
-8.175
-8.185
-8.195
-8.225
-8.255
-8.255
-8.225
-8.185
-8.165
-8.155
-8.185
-8.225
-8.25
-8.27
-8.29
-8.27
-8.245
-8.255
-8.26
-8.255
-8.26
-8.265
-8.27
-8.235
-8.23
-8.21
-8.17
-8.18
-8.175
-8.175
-8.185
-8.18
-8.16
-8.115
-8.105
-8.085
-8.11
-8.1
-8.105
-8.045
-8.01
-7.98
-7.955
-7.91
-7.87
-7.85
-7.815
-7.77
-7.715
-7.64
-7.59
-7.54
-7.525
-7.51
-7.505
-7.485
-7.465
-7.45
-7.43
-7.425
-7.43
-7.43
-7.42
-7.425
-7.455
-7.46
-7.475
-7.48
-7.48
-7.515
-7.53
-7.515
-7.515
-7.52
-7.525
-7.525
-7.505
-7.46
-7.43
-7.415
-7.38
-7.325
-7.14
-6.95
-6.81
-6.67
-6.595
-6.53
-6.465
-6.44
-6.45
-6.46
-6.5
-6.52
-6.56
-6.555
-6.545
-6.55
-6.565
-6.555
-6.535
-6.485
-6.425
-6.355
-6.37
-6.205
-6.16
-6.135
-6.135
-6.135
-6.185
-6.26
-6.33
-6.385
-6.44
-6.505
-6.565
-6.615
-6.705
-6.79
-6.845
-6.95
-7.05
-7.14
-7.185
-7.215
-7.23
-7.24
-7.235
-7.275
-7.29
-7.28
-7.275
-7.29
-7.305
-7.315
-7.315
-7.305
-7.29
-7.24
-7.22
-7.225
-7.24
-7.255
-7.29
-7.295
-7.275
-7.28
-7.335
-7.375
-7.445
-7.485
-7.48
-7.415
-7.455
-7.48
-7.5
-7.49
-7.485
-7.49
-7.495
-7.48
-7.505
-7.58
-7.64
-7.675
-7.7
-7.775
-7.825
-7.855
-7.855
-7.885
-7.95
-7.985
-8.05
-8.1
-8.1
-8.11
-8.14
-8.135
-8.155
-8.175
-8.165
-8.195
-8.21
-8.205
-8.185
-8.16
-8.14
-8.125
-8.11
-8.125
-8.14
-8.165
-8.205
-8.235
-8.29
-8.325
-8.325
-8.255
-8.135
-7.97
-7.735
-7.545
-7.38
-7.26
-7.17
-7.095
-6.99
-6.84
-6.52
-6.115
-5.865
-5.405
-5.305
-5.42
-5.79
-6.325
-6.88
-7.3
-7.625
-7.845
-7.975
-8.1
-8.225
-8.35
-8.465
-8.555
-8.58
-8.6
-8.575
-8.555
-8.54
-8.5
-8.48
-8.42
-8.345
-8.215
-8.065
-7.895
-7.755
-7.635
-7.56
-7.52
-7.49
-7.485
-7.47
-7.455
-7.425
-7.41
-7.41
-7.395
-7.43
-7.485
-7.51
-7.53
-7.545
-7.58
-7.62
-7.635
-7.645
-7.675
-7.69
-7.73
-7.745
-7.795
-7.805
-7.835
-7.825
-7.84
-7.85
-7.87
-7.89
-7.88
-7.905
-7.925
-7.945
-7.985
-8.01
-8.04
-8.08
-8.115
-8.13
-8.145
-8.15
-8.14
-8.155
-8.17
-8.2
-8.255
-8.275
-8.285
-8.29
-8.29
-8.275
-8.27
-8.245
-8.235
-8.23
-8.225
-8.225
-8.205
-8.185
-8.2
-8.185
-8.14
-8.105
-8.085
-8.095
-8.06
-8.025
-8.055
-8.07
-8.055
-8.065
-8.06
-8.07
-8.055
-8.025
-7.99
-7.975
-7.95
-7.95
-7.98
-7.995
-7.995
-8.01
-7.995
-7.975
-7.97
-7.965
-7.935
-7.915
-7.885
-7.86
-7.85
-7.86
-7.85
-7.865
-7.86
-7.895
-7.965
-7.995
-8.005
-7.97
-7.98
-7.975
-8.035
-8.05
-8.105
-8.095
-8.09
-8.09
-8.1
-8.07
-8.055
-8.04
-8.005
-7.97
-7.965
-7.97
-7.95
-7.935
-7.92
-7.935
-7.935
-7.92
-7.9
-7.875
-7.85
-7.81
-7.805
-7.85
-7.86
-7.865
-7.87
-7.875
-7.9
-7.89
-7.88
-7.86
-7.83
-7.81
-7.775
-7.74
-7.77
-7.82
-7.86
-7.9
-7.905
-7.94
-7.96
-7.935
-7.92
-7.855
-7.77
-7.79
-7.825
-7.85
-7.755
-7.685
-7.635
-7.63
-7.575
-7.525
-7.475
-7.45
-7.41
-7.365
-7.355
-7.345
-7.345
-7.355
-7.37
-7.395
-7.425
-7.45
-7.5
-7.565
-7.615
-7.655
-7.715
-7.74
-7.73
-7.7
-7.65
-7.595
-7.565
-7.57
-7.55
-7.58
-7.59
-7.61
-7.61
-7.58
-7.57
-7.56
-7.54
-7.485
-7.45
-7.39
-7.315
-7.14
-6.905
-6.6
-6.36
-6.22
-6.12
-6.065
-6.01
-5.945
-5.89
-5.87
-5.835
-5.855
-5.885
-5.89
-5.93
-5.975
-6.015
-6.08
-6.125
-6.225
-6.31
-6.325
-6.445
-6.485
-6.48
-6.445
-6.41
-6.405
-6.43
-6.49
-6.56
-6.58
-6.52
-6.36
-6.12
-5.885
-5.75
-5.75
-5.895
-6.245
-6.685
-7.165
-7.57
-7.82
-7.965
-8.05
-8.115
-8.19
-8.3
-8.415
-8.5
-8.51
-8.47
-8.43
-8.43
-8.435
-8.43
-8.4
-8.385
-8.355
-8.29
-8.195
-8.07
-7.945
-7.785
-7.68
-7.605
-7.485
-7.48
-7.49
-7.51
-7.48
-7.485
-7.455
-7.5
-7.53
-7.555
-7.54
-7.525
-7.495
-7.525
-7.515
-7.51
-7.51
-7.535
-7.575
-7.645
-7.72
-7.775
-7.78
-7.765
-7.725
-7.725
-7.715
-7.745
-7.755
-7.76
-7.785
-7.81
-7.82
-7.785
-7.775
-7.79
-7.83
-7.855
-7.875
-7.915
-7.94
-7.935
-7.965
-7.99
-8.005
-8.03
-8.03
-8.035
-8.0
-7.965
-7.915
-7.885
-7.855
-7.825
-7.77
-7.665
-7.59
-7.57
-7.555
-7.535
-7.51
-7.45
-7.445
-7.36
-7.35
-7.345
-7.325
-7.335
-7.36
-7.38
-7.4
-7.4
-7.395
-7.37
-7.345
-7.32
-7.3
-7.3
-7.27
-7.285
-7.285
-7.29
-7.27
-7.26
-7.255
-7.28
-7.285
-7.26
-7.245
-7.24
-7.235
-7.215
-7.215
-7.23
-7.245
-7.255
-7.27
-7.275
-7.255
-7.23
-7.23
-7.25
-7.29
-7.335
-7.37
-7.36
-7.38
-7.375
-7.355
-7.345
-7.35
-7.38
-7.36
-7.375
-7.37
-7.41
-7.43
-7.435
-7.42
-7.41
-7.405
-7.39
-7.385
-7.37
-7.4
-7.425
-7.44
-7.465
-7.495
-7.505
-7.495
-7.51
-7.52
-7.51
-7.5
-7.475
-7.485
-7.495
-7.51
-7.535
-7.565
-7.615
-7.63
-7.625
-7.645
-7.62
-7.625
-7.615
-7.61
-7.61
-7.615
-7.595
-7.615
-7.64
-7.655
-7.66
-7.63
-7.6
-7.55
-7.54
-7.545
-7.545
-7.55
-7.53
-7.51
-7.455
-7.445
-7.435
-7.445
-7.46
-7.44
-7.425
-7.425
-7.415
-7.43
-7.455
-7.485
-7.56
-7.595
-7.585
-7.56
-7.54
-7.5
-7.465
-7.445
-7.43
-7.415
-7.395
-7.43
-7.46
-7.495
-7.515
-7.53
-7.56
-7.555
-7.515
-7.5
-7.48
-7.485
-7.52
-7.54
-7.55
-7.56
-7.545
-7.545
-7.5
-7.495
-7.445
-7.425
-7.42
-7.41
-7.41
-7.415
-7.4
-7.425
-7.435
-7.455
-7.47
-7.47
-7.435
-7.385
-7.365
-7.39
-7.42
-7.47
-7.465
-7.465
-7.425
-7.34
-7.24
-7.12
-6.985
-6.915
-6.925
-6.94
-6.85
-6.645
-6.375
-6.07
-5.84
-5.72
-5.83
-6.155
-6.575
-7.06
-7.455
-7.715
-7.885
-7.99
-8.08
-8.135
-8.185
-8.21
-8.205
-8.15
-8.105
-8.05
-8.02
-7.99
-7.945
-7.925
-7.855
-7.775
-7.655
-7.475
-7.3
-7.15
-7.015
-6.96
-6.93
-6.94
-6.98
-7.005
-7.055
-7.07
-7.1
-7.15
-7.19
-7.145
-7.17
-7.15
-7.13
-7.14
-7.11
-7.105
-7.09
-7.085
-7.09
-7.11
-7.09
-7.105
-7.095
-7.145
-7.19
-7.24
-7.305
-7.37
-7.42
-7.455
-7.485
-7.505
-7.5
-7.505
-7.485
-7.5
-7.5
-7.51
-7.51
-7.49
-7.505
-7.5
-7.46
-7.42
-7.38
-7.38
-7.335
-7.305
-7.285
-7.29
-7.3
-7.32
-7.345
-7.345
-7.365
-7.355
-7.38
-7.38
-7.385
-7.415
-7.425
-7.405
-7.455
-7.445
-7.445
-7.445
-7.455
-7.475
-7.465
-7.485
-7.49
-7.48
-7.455
-7.445
-7.46
-7.465
-7.48
-7.47
-7.42
-7.415
-7.415
-7.41
-7.38
-7.37
-7.375
-7.37
-7.415
-7.48
-7.445
-7.43
-7.41
-7.425
-7.43
-7.445
-7.405
-7.385
-7.355
-7.325
-7.38
-7.375
-7.375
-7.395
-7.43
-7.465
-7.44
-7.42
-7.42
-7.445
-7.5
-7.55
-7.605
-7.63
-7.645
-7.67
-7.67
-7.65
-7.64
-7.635
-7.575
-7.55
-7.5
-7.495
-7.52
-7.555
-7.56
-7.575
-7.57
-7.54
-7.52
-7.495
-7.475
-7.505
-7.52
-7.55
-7.545
-7.515
-7.495
-7.47
-7.505
-7.495
-7.47
-7.45
-7.4
-7.37
-7.355
-7.33
-7.305
-7.25
-7.185
-7.12
-7.05
-6.97
-6.895
-6.91
-6.81
-6.72
-6.63
-6.565
-6.505
-6.415
-6.3
-6.11
-5.96
-5.83
-5.825
-5.82
-5.835
-5.885
-5.955
-6.045
-6.115
-6.18
-6.23
-6.265
-6.295
-6.335
-6.39
-6.445
-6.54
-6.62
-6.665
-6.68
-6.7
-6.705
-6.7
-6.685
-6.665
-6.655
-6.68
-6.71
-6.68
-6.665
-6.645
-6.645
-6.645
-6.66
-6.7
-6.74
-6.775
-6.785
-6.815
-6.82
-6.815
-6.84
-6.865
-6.92
-6.955
-6.96
-6.95
-6.97
-6.98
-6.99
-6.99
-7.025
-7.04
-7.08
-7.09
-7.085
-7.085
-7.12
-7.2
-7.275
-7.315
-7.36
-7.38
-7.385
-7.38
-7.33
-7.26
-7.15
-7.09
-7.055
-7.04
-7.04
-6.985
-6.895
-6.755
-6.5
-6.22
-5.96
-5.805
-5.84
-6.06
-6.405
-6.83
-7.265
-7.605
-7.845
-7.955
-8.03
-8.13
-8.23
-8.325
-8.435
-8.555
-8.605
-8.615
-8.615
-8.615
-8.585
-8.545
-8.515
-8.44
-8.385
-8.295
-8.165
-8.015
-7.87
-7.755
-7.655
-7.58
-7.535
-7.495
-7.485
-7.47
-7.47
-7.47
-7.475
-7.49
-7.47
-7.47
-7.47
-7.485
-7.49
-7.46
-7.43
-7.415
-7.415
-7.425
-7.42
-7.45
-7.425
-7.435
-7.43
-7.455
-7.45
-7.44
-7.435
-7.405
-7.395
-7.38
-7.385
-7.4
-7.435
-7.42
-7.435
-7.415
-7.435
-7.42
-7.425
-7.435
-7.435
-7.43
-7.425
-7.43
-7.41
-7.425
-7.43
-7.44
-7.43
-7.39
-7.37
-7.365
-7.35
-7.38
-7.38
-7.375
-7.355
-7.385
-7.39
-7.395
-7.32
-7.25
-7.26
-7.13
-7.1
-7.11
-7.105
-7.12
-7.115
-7.13
-7.14
-7.115
-7.1
-7.105
-7.105
-7.095
-7.08
-7.065
-7.075
-7.035
-7.01
-6.975
-6.95
-6.92
-6.895
-6.865
-6.865
-6.825
-6.82
-6.815
-6.825
-6.845
-6.855
-6.87
-6.88
-6.92
-6.94
-6.975
-6.955
-7.01
-7.045
-7.06
-7.07
-7.075
-7.095
-7.11
-7.13
-7.125
-7.135
-7.15
-7.125
-7.085
-7.07
-7.025
-6.995
-6.975
-6.935
-6.855
-6.76
-6.52
-6.175
-5.715
-5.345
-5.05
-4.855
-4.705
-4.585
-4.505
-4.505
-4.55
-4.645
-4.745
-4.765
-4.78
-4.775
-4.84
-4.9
-4.965
-5.03
-5.085
-5.12
-5.165
-5.225
-5.275
-5.31
-5.335
-5.375
-5.415
-5.48
-5.54
-5.625
-5.72
-5.785
-5.86
-5.955
-6.01
-6.045
-6.06
-6.085
-6.09
-6.12
-6.135
-6.14
-6.16
-6.205
-6.205
-6.21
-6.21
-6.21
-6.205
-6.18
-6.23
-6.25
-6.265
-6.29
-6.315
-6.35
-6.365
-6.39
-6.4
-6.42
-6.44
-6.48
-6.495
-6.5
-6.47
-6.405
-6.415
-6.465
-6.505
-6.59
-6.625
-6.595
-6.51
-6.45
-6.44
-6.515
-6.525
-6.535
-6.595
-6.645
-6.685
-6.7
-6.72
-6.68
-6.625
-6.625
-6.62
-6.675
-6.735
-6.79
-6.825
-6.87
-6.915
-6.935
-6.95
-6.975
-6.975
-6.995
-6.975
-6.995
-7.05
-7.165
-7.265
-7.29
-7.315
-7.325
-7.285
-7.235
-7.13
-7.05
-6.95
-6.875
-6.81
-6.81
-6.84
-6.805
-6.655
-6.385
-6.065
-5.69
-5.405
-5.385
-5.35
-5.605
-6.01
-6.44
-6.84
-7.105
-7.23
-7.27
-7.305
-7.33
-7.35
-7.36
-7.35
-7.335
-7.33
-7.33
-7.32
-7.34
-7.36
-7.395
-7.43
-7.46
-7.47
-7.46
-7.41
-7.335
-7.205
-7.075
-6.965
-6.885
-6.84
-6.81
-6.8
-6.79
-6.76
-6.715
-6.675
-6.655
-6.645
-6.675
-6.68
-6.7
-6.735
-6.735
-6.73
-6.76
-6.76
-6.755
-6.745
-6.775
-6.805
-6.855
-6.88
-6.9
-6.915
-6.965
-6.98
-6.99
-6.995
-7.005
-7.01
-6.995
-6.995
-6.995
-7.01
-7.04
-7.085
-7.115
-7.115
-7.11
-7.105
-7.11
-7.145
-7.17
-7.19
-7.2
-7.225
-7.21
-7.19
-7.19
-7.21
-7.25
-7.25
-7.265
-7.27
-7.27
-7.265
-7.265
-7.28
-7.3
-7.315
-7.32
-7.3
-7.26
-7.28
-7.27
-7.26
-7.245
-7.26
-7.285
-7.285
-7.31
-7.31
-7.32
-7.315
-7.315
-7.3
-7.295
-7.27
-7.265
-7.26
-7.27
-7.29
-7.32
-7.315
-7.31
-7.29
-7.27
-7.25
-7.24
-7.25
-7.265
-7.305
-7.34
-7.355
-7.385
-7.405
-7.405
-7.41
-7.42
-7.415
-7.41
-7.375
-7.355
-7.35
-7.345
-7.36
-7.39
-7.39
-7.385
-7.37
-7.35
-7.345
-7.34
-7.34
-7.345
-7.345
-7.37
-7.37
-7.385
-7.385
-7.38
-7.355
-7.35
-7.32
-7.28
-7.26
-7.215
-7.215
-7.205
-7.235
-7.24
-7.25
-7.24
-7.245
-7.23
-7.215
-7.205
-7.2
-7.17
-7.17
-7.185
-7.2
-7.23
-7.265
-7.295
-7.31
-7.27
-7.23
-7.225
-7.22
-7.19
-7.145
-7.12
-7.1
-7.08
-7.06
-7.075
-7.12
-7.14
-7.12
-7.075
-7.01
-7.0
-7.02
-7.035
-7.035
-7.055
-7.025
-6.995
-6.97
-6.955
-6.915
-6.88
-6.865
-6.85
-6.83
-6.815
-6.79
-6.755
-6.715
-6.7
-6.69
-6.665
-6.65
-6.645
-6.63
-6.65
-6.7
-6.76
-6.815
-6.86
-6.915
-6.95
-6.99
-7.015
-7.065
-7.095
-7.085
-7.1
-7.1
-7.09
-7.115
-7.095
-7.075
-7.055
-7.01
-6.95
-6.885
-6.655
-6.4
-6.095
-5.915
-5.78
-5.705
-5.62
-5.57
-5.555
-5.57
-5.64
-5.7
-5.71
-5.775
-5.79
-5.75
-5.7
-5.625
-5.485
-5.32
-5.185
-5.09
-5.02
-4.995
-4.915
-4.745
-4.51
-4.25
-4.02
-3.97
-4.095
-4.435
-4.94
-5.505
-6.01
-6.4
-6.67
-6.825
-6.955
-7.125
-7.27
-7.425
-7.54
-7.655
-7.705
-7.73
-7.74
-7.745
-7.68
-7.69
-7.67
-7.61
-7.565
-7.49
-7.385
-7.255
-7.1
-6.965
-6.85
-6.76
-6.685
-6.7
-6.75
-6.785
-6.775
-6.805
-6.795
-6.8
-6.785
-6.79
-6.775
-6.755
-6.735
-6.74
-6.76
-6.78
-6.79
-6.81
-6.805
-6.815
-6.82
-6.885
-6.94
-6.985
-6.965
-6.99
-6.975
-6.965
-6.98
-7.0
-7.035
-7.07
-7.15
-7.215
-7.275
-7.295
-7.33
-7.35
-7.33
-7.335
-7.36
-7.34
-7.35
-7.375
-7.41
-7.445
-7.445
-7.43
-7.41
-7.385
-7.33
-7.315
-7.335
-7.355
-7.36
-7.33
-7.31
-7.305
-7.235
-7.17
-7.195
-6.965
-6.885
-6.855
-6.88
-6.9
-6.9
-6.93
-6.905
-6.815
-6.695
-6.59
-6.495
-6.45
-6.37
-6.3
-6.23
-6.135
-6.065
-6.0
-5.9
-5.885
-5.875
-5.895
-5.925
-6.0
-6.1
-6.205
-6.335
-6.44
-6.535
-6.575
-6.61
-6.64
-6.695
-6.755
-6.725
-6.815
-6.8
-6.75
-6.715
-6.705
-6.675
-6.68
-6.7
-6.7
-6.685
-6.63
-6.595
-6.56
-6.59
-6.63
-6.62
-6.64
-6.655
-6.635
-6.595
-6.575
-6.555
-6.56
-6.575
-6.585
-6.64
-6.705
-6.735
-6.755
-6.755
-6.745
-6.755
-6.76
-6.785
-6.8
-6.77
-6.805
-6.805
-6.805
-6.835
-6.88
-6.905
-6.94
-6.93
-6.945
-6.945
-6.925
-6.93
-6.955
-6.99
-7.01
-7.04
-7.055
-7.065
-7.07
-7.075
-7.12
-7.17
-7.155
-7.14
-7.11
-7.115
-7.11
-7.085
-7.05
-7.04
-7.045
-7.05
-7.06
-7.06
-7.02
-7.0
-6.985
-6.995
-7.015
-7.025
-7.035
-7.035
-7.025
-7.02
-7.025
-7.05
-7.095
-7.145
-7.19
-7.19
-7.175
-7.175
-7.15
-7.145
-7.135
-7.14
-7.17
-7.205
-7.245
-7.265
-7.28
-7.295
-7.295
-7.305
-7.325
-7.355
-7.39
-7.4
-7.415
-7.4
-7.38
-7.37
-7.35
-7.345
-7.33
-7.33
-7.325
-7.32
-7.34
-7.355
-7.375
-7.385
-7.4
-7.375
-7.37
-7.35
-7.335
-7.365
-7.34
-7.36
-7.395
-7.415
-7.385
-7.31
-7.16
-7.015
-6.855
-6.73
-6.7
-6.69
-6.685
-6.575
-6.37
-6.105
-5.83
-5.655
-5.62
-5.785
-6.14
-6.615
-7.105
-7.555
-7.88
-8.055
-8.13
-8.19
-8.255
-8.325
-8.345
-8.36
-8.365
-8.36
-8.36
-8.355
-8.345
-8.3
-8.23
-8.14
-8.045
-7.905
-7.755
-7.635
-7.515
-7.425
-7.39
-7.375
-7.37
-7.33
-7.3
-7.28
-7.27
-7.225
-7.18
-7.18
-7.105
-7.085
-7.06
-7.02
-7.035
-7.065
-7.1
-7.12
-7.11
-7.085
-7.095
-7.07
-7.035
-7.03
-7.015
-6.99
-6.995
-7.0
-6.995
-6.98
-6.975
-6.96
-6.945
-6.925
-6.895
-6.85
-6.85
-6.825
-6.78
-6.745
-6.725
-6.71
-6.665
-6.565
-6.4
-6.485
-5.88
-5.62
-5.405
-5.19
-5.01
-4.805
-4.64
-4.455
-4.335
-4.25
-4.21
-4.195
-4.16
-4.15
-4.155
-4.15
-4.175
-4.15
-4.13
-4.115
-4.1
-4.105
-4.095
-4.12
-4.13
-4.155
-4.175
-4.2
-4.225
-4.28
-4.305
-4.335
-4.395
-4.48
-4.595
-4.525
-4.79
-4.895
-5.025
-5.105
-5.195
-5.265
-5.345
-5.415
-5.47
-5.535
-5.58
-5.605
-5.655
-5.695
-5.72
-5.745
-5.74
-5.765
-5.76
-5.765
-5.81
-5.865
-5.89
-5.865
-5.87
-5.87
-5.89
-5.9
-5.91
-5.92
-5.96
-5.955
-5.945
-5.97
-6.005
-5.985
-5.97
-5.935
-5.95
-5.925
-5.935
-5.945
-5.97
-5.98
-6.0
-5.985
-6.005
-6.01
-6.01
-5.93
-5.925
-5.95
-5.955
-5.99
-5.995
-6.0
-5.985
-6.0
-6.005
-6.06
-6.12
-6.195
-6.185
-6.165
-6.19
-6.27
-6.31
-6.335
-6.31
-6.305
-6.3
-6.285
-6.27
-6.245
-6.22
-6.215
-6.24
-6.28
-6.33
-6.365
-6.4
-6.43
-6.385
-6.355
-6.315
-6.23
-6.11
-6.005
-5.89
-5.775
-5.645
-5.585
-5.57
-5.57
-5.53
-5.47
-5.47
-5.51
-5.575
-5.64
-5.695
-5.74
-5.795
-5.845
-5.895
-5.915
-5.955
-5.935
-6.05
-6.09
-6.145
-6.15
-6.16
-6.16
-6.195
-6.21
-6.2
-6.165
-6.165
-6.155
-6.145
-6.12
-6.085
-6.07
-6.05
-6.035
-6.01
-5.985
-5.965
-5.955
-5.94
-5.96
-5.98
-6.0
-6.02
-6.045
-6.075
-6.11
-6.165
-6.21
-6.26
-6.28
-6.305
-6.315
-6.34
-6.325
-6.26
-6.13
-6.005
-5.895
-5.84
-5.83
-5.82
-5.78
-5.675
-5.47
-5.2
-4.935
-4.755
-4.75
-4.91
-5.245
-5.68
-6.12
-6.51
-6.79
-6.98
-7.095
-7.17
-7.285
-7.39
-7.535
-7.655
-7.74
-7.785
-7.77
-7.77
-7.775
-7.805
-7.78
-7.885
-7.905
-7.9
-7.875
-7.825
-7.725
-7.61
-7.475
-7.335
-7.255
-7.2
-7.165
-7.12
-7.13
-7.125
-7.11
-7.12
-7.115
-7.115
-7.085
-7.08
-7.055
-7.045
-7.03
-7.01
-7.01
-7.01
-7.0
-7.0
-7.03
-7.06
-7.075
-7.11
-7.125
-7.14
-7.12
-7.135
-7.145
-7.19
-7.225
-7.3
-7.36
-7.415
-7.46
-7.495
-7.54
-7.525
-7.525
-7.53
-7.535
-7.55
-7.565
-7.555
-7.565
-7.58
-7.6
-7.61
-7.59
-7.585
-7.565
-7.54
-7.525
-7.505
-7.48
-7.49
-7.505
-7.505
-7.505
-7.49
-7.47
-7.43
-7.415
-7.34
-7.3
-7.255
-7.265
-7.26
-7.25
-7.235
-7.185
-7.16
-7.14
-7.14
-7.13
-7.12
-7.1
-7.075
-7.03
-7.02
-7.05
-7.04
-7.015
-6.98
-6.955
-6.955
-6.915
-6.88
-6.895
-6.905
-6.895
-6.885
-6.89
-6.895
-6.92
-6.92
-6.92
-6.9
-6.895
-6.86
-6.855
-6.855
-6.835
-6.85
-6.82
-6.81
-6.82
-6.84
-6.845
-6.845
-6.895
-6.915
-6.93
-6.95
-6.995
-7.02
-6.995
-6.995
-6.96
-6.945
-6.915
-6.88
-6.845
-6.855
-6.83
-6.81
-6.8
-6.795
-6.785
-6.785
-6.79
-6.78
-6.71
-6.63
-6.66
-6.46
-6.355
-6.26
-6.17
-6.11
-6.07
-6.04
-6.015
-5.99
-5.945
-5.815
-5.665
-5.465
-5.25
-5.075
-4.88
-4.765
-4.695
-4.655
-4.665
-4.705
-4.73
-4.72
-4.71
-4.68
-4.64
-4.64
-4.645
-4.65
-4.64
-4.625
-4.625
-4.63
-4.665
-4.685
-4.695
-4.73
-4.75
-4.795
-4.825
-4.885
-4.935
-5.0
-5.04
-5.1
-5.125
-5.145
-5.15
-5.145
-5.13
-5.12
-5.1
-5.11
-5.125
-5.17
-5.245
-5.32
-5.375
-5.39
-5.43
-5.45
-5.49
-5.55
-5.625
-5.69
-5.725
-5.76
-5.77
-5.815
-5.835
-5.855
-5.835
-5.865
-5.87
-5.9
-5.93
-5.955
-6.005
-6.075
-6.08
-6.08
-6.08
-6.12
-6.125
-6.095
-6.145
-6.205
-6.25
-6.27
-6.285
-6.315
-6.32
-6.315
-6.275
-6.215
-6.17
-6.075
-5.99
-5.93
-5.92
-5.93
-5.885
-5.755
-5.53
-5.25
-5.01
-4.87
-4.825
-5.055
-5.375
-5.78
-6.22
-6.6
-6.85
-7.015
-7.11
-7.175
-7.255
-7.395
-7.52
-7.57
-7.495
-7.46
-7.41
-7.475
-7.58
-7.645
-7.66
-7.6
-7.52
-7.425
-7.335
-7.2
-7.02
-6.83
-6.665
-6.495
-6.335
-6.2
-6.075
-6.005
-5.985
-6.0
-5.965
-6.01
-6.01
-6.045
-6.105
-6.18
-6.235
-6.295
-6.335
-6.365
-6.4
-6.39
-6.38
-6.38
-6.37
-6.37
-6.375
-6.4
-6.43
-6.445
-6.47
-6.48
-6.45
-6.455
-6.43
-6.435
-6.44
-6.46
-6.485
-6.47
-6.455
-6.45
-6.45
-6.46
-6.465
-6.475
-6.46
-6.49
-6.465
-6.475
-6.5
-6.52
-6.555
-6.59
-6.61
-6.65
-6.655
-6.665
-6.68
-6.695
-6.675
-6.685
-6.67
-6.655
-6.62
-6.595
-6.59
-6.575
-6.58
-6.58
