-7.565
-7.545
-7.515
-7.475
-7.43
-7.405
-7.385
-7.4
-7.405
-7.39
-7.405
-7.395
-7.405
-7.425
-7.435
-7.44
-7.45
-7.475
-7.475
-7.485
-7.51
-7.5
-7.495
-7.475
-7.465
-7.49
-7.485
-7.48
-7.485
-7.495
-7.5
-7.535
-7.565
-7.62
-7.64
-7.64
-7.66
-7.62
-7.605
-7.595
-7.61
-7.62
-7.615
-7.635
-7.645
-7.68
-7.725
-7.745
-7.77
-7.775
-7.775
-7.755
-7.73
-7.685
-7.65
-7.61
-7.575
-7.555
-7.53
-7.525
-7.55
-7.535
-7.52
-7.48
-7.375
-7.235
-7.11
-7.015
-6.975
-6.965
-6.955
-6.88
-6.755
-6.595
-6.465
-6.46
-6.655
-7.04
-7.54
-8.03
-8.405
-8.61
-8.71
-8.74
-8.765
-8.82
-8.875
-8.94
-8.985
-9.005
-8.985
-8.955
-8.9
-8.9
-8.88
-8.87
-8.835
-8.78
-8.685
-8.545
-8.37
-8.18
-8.005
-7.865
-7.79
-7.75
-7.75
-7.755
-7.76
-7.735
-7.665
-7.61
-7.54
-7.525
-7.57
-7.625
-7.69
-7.715
-7.715
-7.7
-7.685
-7.67
-7.69
-7.69
-7.695
-7.7
-7.68
-7.675
-7.685
-7.7
-7.73
-7.75
-7.77
-7.775
-7.755
-7.735
-7.74
-7.72
-7.74
-7.785
-7.805
-7.82
-7.855
-7.86
-7.85
-7.81
-7.775
-7.77
-7.775
-7.81
-7.83
-7.855
-7.86
-7.835
-7.84
-7.82
-7.8
-7.79
-7.75
-7.715
-7.68
-7.66
-7.625
-7.62
-7.65
-7.67
-7.7
-7.71
-7.69
-7.66
-7.62
-7.6
-7.575
-7.545
-7.565
-7.555
-7.56
-7.565
-7.555
-7.535
-7.525
-7.5
-7.485
-7.48
-7.49
-7.5
-7.5
-7.51
-7.56
-7.625
-7.675
-7.69
-7.665
-7.645
-7.64
-7.655
-7.685
-7.695
-7.705
-7.68
-7.655
-7.65
-7.655
-7.67
-7.705
-7.705
-7.7
-7.655
-7.62
-7.585
-7.58
-7.605
-7.595
-7.63
-7.645
-7.69
-7.735
-7.79
-7.8
-7.81
-7.8
-7.79
-7.775
-7.765
-7.74
-7.745
-7.735
-7.725
-7.715
-7.68
-7.675
-7.695
-7.715
-7.745
-7.77
-7.78
-7.79
-7.82
-7.85
-7.86
-7.845
-7.8
-7.76
-7.72
-7.695
-7.665
-7.65
-7.625
-7.575
-7.545
-7.5
-7.48
-7.48
-7.48
-7.49
-7.505
-7.55
-7.63
-7.74
-7.88
-8.005
-8.055
-7.995
-7.83
-7.53
-7.115
-6.67
-6.3
-6.055
-6.005
-6.13
-6.39
-6.71
-7.04
-7.31
-7.57
-7.785
-7.96
-8.09
-8.185
-8.22
-8.255
-8.28
-8.29
-8.315
-8.285
-8.21
-8.115
-8.045
-7.975
-7.94
-7.945
-7.955
-7.985
-8.005
-8.0
-7.97
-7.935
-7.89
-7.88
-7.88
-7.865
-7.885
-7.88
-7.89
-7.875
-7.88
-7.895
-7.915
-7.915
-7.91
-7.9
-7.88
-7.885
-7.88
-7.895
-7.89
-7.9
-7.93
-7.95
-7.965
-7.98
-7.99
-8.01
-8.015
-8.0
-7.985
-7.98
-7.975
-7.995
-8.035
-8.065
-8.09
-8.11
-8.11
-8.095
-8.11
-8.13
-8.135
-8.14
-8.155
-8.145
-8.14
-8.19
-8.205
-8.225
-8.24
-8.24
-8.22
-8.22
-8.195
-8.14
-8.115
-8.07
-8.07
-8.105
-8.135
-8.175
-8.205
-8.215
-8.22
-8.175
-8.125
-8.04
-7.985
-7.95
-7.92
-7.94
-7.97
-7.98
-7.99
-7.98
-7.95
-7.905
-7.86
-7.855
-7.85
-7.885
-7.89
-7.865
-7.86
-7.84
-7.785
-7.755
-7.755
-7.765
-7.78
-7.8
-7.82
-7.79
-7.74
-7.705
-7.69
-7.705
-7.77
-7.83
-7.86
-7.855
-7.825
-7.785
-7.76
-7.725
-7.72
-7.725
-7.75
-7.765
-7.775
-7.755
-7.75
-7.74
-7.775
-7.82
-7.835
-7.83
-7.795
-7.755
-7.76
-7.77
-7.78
-7.815
-7.825
-7.835
-7.825
-7.83
-7.83
-7.815
-7.785
-7.735
-7.695
-7.665
-7.68
-7.715
-7.75
-7.775
-7.775
-7.77
-7.755
-7.75
-7.73
-7.705
-7.7
-7.68
-7.66
-7.66
-7.68
-7.75
-7.82
-7.895
-7.9
-7.895
-7.88
-7.85
-7.81
-7.78
-7.77
-7.74
-7.735
-7.745
-7.735
-7.73
-7.725
-7.715
-7.71
-7.73
-7.745
-7.77
-7.77
-7.775
-7.745
-7.71
-7.655
-7.605
-7.56
-7.57
-7.6
-7.66
-7.72
-7.75
-7.75
-7.745
-7.73
-7.725
-7.735
-7.715
-7.73
-7.695
-7.7
-7.675
-7.625
-7.615
-7.615
-7.62
-7.635
-7.65
-7.67
-7.67
-7.64
-7.6
-7.565
-7.555
-7.565
-7.575
-7.605
-7.645
-7.685
-7.695
-7.69
-7.655
-7.61
-7.59
-7.585
-7.61
-7.63
-7.605
-7.595
-7.565
-7.555
-7.58
-7.61
-7.625
-7.635
-7.63
-7.635
-7.62
-7.58
-7.57
-7.565
-7.57
-7.56
-7.555
-7.555
-7.525
-7.475
-7.455
-7.435
-7.43
-7.435
-7.455
-7.45
-7.425
-7.39
-7.41
-7.435
-7.475
-7.525
-7.565
-7.575
-7.57
-7.555
-7.495
-7.465
-7.42
-7.385
-7.395
-7.425
-7.46
-7.51
-7.5
-7.515
-7.56
-7.595
-7.65
-7.705
-7.725
-7.745
-7.75
-7.73
-7.705
-7.655
-7.645
-7.64
-7.655
-7.675
-7.7
-7.715
-7.715
-7.7
-7.705
-7.725
-7.77
-7.78
-7.775
-7.755
-7.715
-7.69
-7.705
-7.745
-7.765
-7.74
-7.685
-7.56
-7.425
-7.295
-7.175
-7.09
-7.095
-7.17
-7.235
-7.27
-7.225
-7.06
-6.855
-6.67
-6.54
-6.535
-6.745
-7.075
-7.54
-8.01
-8.38
-8.625
-8.76
-8.79
-8.795
-8.785
-8.805
-8.84
-8.865
-8.84
-8.86
-8.865
-8.88
-8.89
-8.93
-8.955
-8.95
-8.89
-8.78
-8.62
-8.415
-8.24
-8.11
-7.985
-7.895
-7.82
-7.765
-7.745
-7.745
-7.72
-7.685
-7.645
-7.59
-7.555
-7.51
-7.52
-7.535
-7.555
-7.61
-7.65
-7.7
-7.7
-7.665
-7.61
-7.535
-7.475
-7.45
-7.465
-7.51
-7.61
-7.67
-7.7
-7.705
-7.675
-7.605
-7.565
-7.545
-7.55
-7.64
-7.745
-7.815
-7.855
-7.835
-7.81
-7.79
-7.765
-7.745
-7.765
-7.81
-7.85
-7.875
-7.9
-7.85
-7.76
-7.67
-7.615
-7.615
-7.65
-7.65
-7.64
-7.575
-7.49
-7.415
-7.33
-7.235
-7.18
-7.155
-7.16
-7.17
-7.215
-7.275
-7.33
-7.325
-7.3
-7.305
-7.305
-7.355
-7.41
-7.5
-7.555
-7.58
-7.555
-7.52
-7.48
-7.39
-7.325
-7.32
-7.31
-7.325
-7.325
-7.345
-7.345
-7.375
-7.39
-7.425
-7.42
-7.44
-7.45
-7.47
-7.5
-7.525
-7.525
-7.485
-7.37
-7.245
-7.165
-7.085
-7.07
-7.12
-7.145
-7.165
-7.135
-7.125
-7.085
-7.09
-7.065
-7.085
-7.105
-7.15
-7.2
-7.285
-7.3
-7.255
-7.16
-7.045
-6.9
-6.815
-6.755
-6.775
-6.815
-6.88
-6.91
-6.91
-6.91
-6.94
-6.96
-6.945
-6.985
-7.035
-7.11
-7.225
-7.275
-7.32
-7.35
-7.355
-7.31
-7.255
-7.215
-7.195
-7.17
-7.18
-7.205
-7.2
-7.185
-7.145
-7.12
-7.15
-7.165
-7.185
-7.18
-7.165
-7.155
-7.17
-7.21
-7.25
-7.26
-7.24
-7.195
-7.13
-7.09
-7.095
-7.12
-7.155
-7.195
-7.24
-7.265
-7.29
-7.315
-7.35
-7.395
-7.42
-7.41
-7.36
-7.295
-7.295
-7.33
-7.42
-7.575
-7.755
-7.87
-7.895
-7.87
-7.735
-7.59
-7.49
-7.43
-7.44
-7.48
-7.54
-7.58
-7.58
-7.58
-7.54
-7.5
-7.48
-7.46
-7.465
-7.475
-7.495
-7.52
-7.545
-7.57
-7.59
-7.62
-7.64
-7.66
-7.675
-7.675
-7.66
-7.655
-7.64
-7.605
-7.55
-7.46
-7.33
-7.24
-7.18
-7.175
-7.18
-7.175
-7.15
-7.05
-6.885
-6.685
-6.515
-6.42
-6.44
-6.61
-6.945
-7.38
-7.83
-8.185
-8.425
-8.57
-8.65
-8.725
-8.785
-8.87
-8.91
-8.935
-8.93
-8.915
-8.89
-8.865
-8.86
-8.83
-8.815
-8.785
-8.745
-8.675
-8.595
-8.485
-8.355
-8.19
-8.055
-7.97
-7.915
-7.885
-7.87
-7.895
-7.87
-7.865
-7.88
-7.865
-7.845
-7.84
-7.79
-7.75
-7.725
-7.73
-7.77
-7.84
-7.865
-7.865
-7.865
-7.855
-7.835
-7.82
-7.8
-7.8
-7.825
-7.89
-7.98
-8.065
-8.09
-8.085
-8.065
-8.035
-8.03
-8.035
-8.03
-8.03
-8.03
-8.015
-8.01
-8.02
-8.07
-8.105
-8.14
-8.14
-8.08
-8.045
-7.97
-7.93
-7.94
-7.975
-8.025
-8.03
-8.01
-7.965
-7.915
-7.865
-7.805
-7.785
-7.79
-7.82
-7.845
-7.84
-7.81
-7.76
-7.705
-7.64
-7.595
-7.56
-7.535
-7.52
-7.535
-7.565
-7.61
-7.65
-7.64
-7.605
-7.545
-7.495
-7.45
-7.395
-7.38
-7.36
-7.335
-7.325
-7.315
-7.335
-7.335
-7.34
-7.34
-7.32
-7.29
-7.23
-7.195
-7.185
-7.18
-7.195
-7.215
-7.21
-7.205
-7.195
-7.18
-7.13
-7.11
-7.095
-7.12
-7.21
-7.25
-7.265
-7.245
-7.17
-7.08
-7.025
-7.005
-7.0
-7.025
-7.07
-7.07
-7.04
-7.03
-6.99
-6.99
-6.985
-6.975
-6.98
-7.01
-7.03
-7.05
-7.0
-6.925
-6.895
-6.9
-6.915
-6.96
-6.985
-6.995
-6.96
-6.92
-6.84
-6.805
-6.77
-6.775
-6.765
-6.765
-6.715
-6.655
-6.625
-6.605
-6.63
-6.65
-6.675
-6.665
-6.62
-6.535
-6.41
-6.31
-6.25
-6.25
-6.315
-6.39
-6.44
-6.46
-6.47
-6.45
-6.405
-6.35
-6.275
-6.235
-6.215
-6.265
-6.33
-6.37
-6.38
-6.35
-6.295
-6.25
-6.19
-6.18
-6.18
-6.19
-6.215
-6.29
-6.34
-6.37
-6.33
-6.315
-6.32
-6.31
-6.275
-6.215
-6.195
-6.145
-6.14
-6.175
-6.255
-6.335
-6.405
-6.405
-6.385
-6.34
-6.275
-6.2
-6.16
-6.16
-6.2
-6.27
-6.32
-6.36
-6.39
-6.38
-6.365
-6.335
-6.3
-6.265
-6.25
-6.23
-6.18
-6.09
-5.955
-5.805
-5.66
-5.545
-5.505
-5.52
-5.575
-5.59
-5.57
-5.47
-5.32
-5.19
-5.135
-5.195
-5.375
-5.695
-6.09
-6.47
-6.755
-6.955
-7.085
-7.195
-7.27
-7.33
-7.37
-7.38
-7.38
-7.365
-7.355
-7.4
-7.455
-7.46
-7.465
-7.395
-7.29
-7.195
-7.08
-6.98
-6.855
-6.695
-6.535
-6.4
-6.335
-6.315
-6.315
-6.32
-6.31
-6.28
-6.245
-6.235
-6.195
-6.205
-6.225
-6.225
-6.235
-6.21
-6.215
-6.215
-6.25
-6.285
-6.325
-6.29
-6.25
-6.185
-6.17
-6.19
-6.225
-6.305
-6.355
-6.39
-6.37
-6.335
-6.3
-6.27
-6.27
-6.285
-6.285
-6.29
-6.29
-6.31
-6.305
-6.3
-6.275
-6.265
-6.26
-6.29
-6.335
-6.39
-6.425
-6.46
-6.45
-6.39
-6.31
-6.265
-6.225
-6.24
-6.27
-6.335
-6.38
-6.425
-6.45
-6.495
-6.52
-6.505
-6.465
-6.405
-6.345
-6.305
-6.285
-6.285
-6.28
-6.32
-6.355
-6.4
-6.415
-6.41
-6.38
-6.395
-6.42
-6.48
-6.535
-6.585
-6.615
-6.615
-6.585
-6.555
-6.505
-6.485
-6.5
-6.545
-6.55
-6.57
-6.565
-6.525
-6.495
-6.485
-6.54
-6.62
-6.665
-6.665
-6.635
-6.585
-6.545
-6.56
-6.595
-6.665
-6.745
-6.8
-6.84
-6.82
-6.79
-6.735
-6.68
-6.64
-6.63
-6.655
-6.72
-6.805
-6.885
-6.91
-6.91
-6.88
-6.87
-6.835
-6.81
-6.765
-6.75
-6.765
-6.77
-6.795
-6.84
-6.89
-6.895
-6.84
-6.8
-6.785
-6.8
-6.82
-6.86
-6.945
-7.04
-7.105
-7.1
-7.11
-7.125
-7.17
-7.205
-7.21
-7.18
-7.11
-7.03
-6.975
-6.93
-6.885
-6.875
-6.895
-6.95
-7.02
-7.055
-7.075
-7.075
-7.015
-6.935
-6.85
-6.775
-6.705
-6.67
-6.675
-6.75
-6.865
-6.965
-7.015
-7.015
-6.99
-6.945
-6.935
-6.94
-6.96
-7.0
-7.0
-6.975
-6.925
-6.85
-6.78
-6.745
-6.715
-6.7
-6.715
-6.755
-6.79
-6.8
-6.77
-6.75
-6.735
-6.73
-6.715
-6.68
-6.65
-6.64
-6.69
-6.72
-6.76
-6.835
-6.94
-7.095
-7.255
-7.335
-7.355
-7.335
-7.31
-7.25
-7.17
-7.125
-7.105
-7.14
-7.175
-7.265
-7.35
-7.45
-7.515
-7.54
-7.505
-7.43
-7.32
-7.185
-7.07
-6.975
-6.91
-6.83
-6.735
-6.67
-6.63
-6.66
-6.71
-6.745
-6.73
-6.655
-6.49
-6.33
-6.265
-6.39
-6.73
-7.22
-7.74
-8.155
-8.4
-8.455
-8.4
-8.295
-8.275
-8.39
-8.605
-8.815
-8.935
-8.935
-8.81
-8.64
-8.49
-8.42
-8.43
-8.46
-8.435
-8.35
-8.21
-8.065
-7.99
-7.935
-7.85
-7.7
-7.555
-7.415
-7.285
-7.18
-7.14
-7.215
-7.385
-7.59
-7.7
-7.645
-7.44
-7.23
-7.065
-7.02
-7.11
-7.29
-7.47
-7.57
-7.56
-7.475
-7.355
-7.24
-7.195
-7.175
-7.18
-7.21
-7.285
-7.355
-7.39
-7.4
-7.425
-7.44
-7.49
-7.53
-7.535
-7.515
-7.49
-7.465
-7.46
-7.465
-7.505
-7.575
-7.645
-7.68
-7.65
-7.56
-7.435
-7.375
-7.37
-7.445
-7.545
-7.64
-7.68
-7.655
-7.575
-7.46
-7.43
-7.56
-7.77
-7.95
-8.0
-7.895
-7.72
-7.51
-7.29
-7.19
-7.235
-7.35
-7.455
-7.51
-7.53
-7.56
-7.59
-7.585
-7.53
-7.4
-7.25
-7.17
-7.185
-7.295
-7.36
-7.345
-7.33
-7.32
-7.36
-7.405
-7.39
-7.335
-7.27
-7.305
-7.435
-7.6
-7.66
-7.645
-7.56
-7.435
-7.3
-7.195
-7.205
-7.27
-7.34
-7.38
-7.445
-7.485
-7.525
-7.51
-7.43
-7.32
-7.19
-7.08
-6.995
-7.005
-7.06
-7.26
-7.49
-7.65
-7.64
-7.48
-7.33
-7.26
-7.325
-7.44
-7.515
-7.455
-7.36
-7.265
-7.215
-7.2
-7.28
-7.335
-7.38
-7.37
-7.355
-7.28
-7.215
-7.2
-7.19
-7.27
-7.38
-7.45
-7.43
-7.305
-7.175
-7.16
-7.24
-7.335
-7.41
-7.32
-7.185
-7.09
-7.095
-7.23
-7.44
-7.54
-7.525
-7.41
-7.255
-7.115
-7.055
-7.12
-7.27
-7.44
-7.54
-7.585
-7.58
-7.545
-7.515
-7.52
-7.57
-7.62
-7.645
-7.66
-7.69
-7.785
-7.88
-7.96
-7.96
-7.905
-7.815
-7.785
-7.815
-7.925
-8.045
-8.095
-8.065
-8.075
-8.05
-7.955
-7.865
-7.83
-7.9
-8.055
-8.22
-8.3
-8.23
-8.115
-7.945
-7.8
-7.68
-7.635
-7.675
-7.785
-7.9
-7.905
-7.82
-7.675
-7.5
-7.355
-7.255
-7.235
-7.265
-7.34
-7.445
-7.54
-7.605
-7.54
-7.4
-7.22
-7.07
-6.95
-6.9
-6.89
-6.9
-6.945
-6.985
-6.95
-6.905
-6.84
-6.775
-6.75
-6.87
-7.17
-7.59
-8.04
-8.395
-8.565
-8.6
-8.615
-8.67
-8.76
-8.835
-8.905
-8.97
-8.995
-9.0
-8.985
-8.99
-9.02
-9.045
-8.98
-8.85
-8.67
-8.47
-8.305
-8.2
-8.15
-8.12
-8.135
-8.11
-8.115
-8.12
-8.07
-8.045
-8.01
-8.02
-8.035
-8.04
-8.02
-8.02
-8.03
-8.07
-8.115
-8.145
-8.15
-8.11
-8.065
-8.015
-7.975
-7.955
-7.965
-7.955
-7.92
-7.865
-7.81
-7.75
-7.75
-7.805
-7.91
-7.985
-8.0
-7.975
-7.905
-7.84
-7.85
-7.905
-7.945
-7.96
-7.935
-7.91
-7.885
-7.835
-7.815
-7.845
-7.94
-8.075
-8.16
-8.15
-8.095
-8.02
-7.97
-7.96
-7.98
-8.04
-8.1
-8.12
-8.12
-8.06
-7.995
-7.975
-7.965
-7.98
-7.97
-7.96
-7.95
-7.925
-7.885
-7.835
-7.785
-7.8
-7.895
-8.015
-8.11
-8.14
-8.12
-8.045
-7.995
-7.96
-7.975
-7.985
-7.985
-7.95
-7.92
-7.9
-7.925
-8.01
-8.065
-8.13
-8.185
-8.21
-8.14
-8.06
-7.96
-7.915
-7.96
-8.01
-8.095
-8.17
-8.205
-8.18
-8.155
-8.095
-8.035
-8.01
-7.995
-7.995
-8.005
-7.995
-7.99
-7.995
-8.005
-7.94
-7.88
-7.86
-7.905
-7.965
-7.995
-7.97
-7.905
-7.855
-7.81
-7.785
-7.785
-7.8
-7.83
-7.83
-7.83
-7.855
-7.9
-7.91
-7.87
-7.84
-7.86
-7.895
-7.95
-7.99
-8.025
-8.03
-8.04
-8.035
-8.02
-7.975
-7.965
-7.925
-7.895
-7.885
-7.895
-7.895
-7.895
-7.86
-7.835
-7.81
-7.825
-7.815
-7.81
-7.78
-7.77
-7.78
-7.775
-7.725
-7.69
-7.635
-7.645
-7.695
-7.805
-7.92
-8.0
-7.985
-7.905
-7.79
-7.71
-7.7
-7.77
-7.835
-7.895
-7.91
-7.915
-7.875
-7.85
-7.805
-7.78
-7.795
-7.835
-7.915
-7.98
-8.02
-8.0
-7.925
-7.86
-7.835
-7.88
-7.94
-7.995
-8.05
-8.06
-8.04
-8.005
-7.99
-7.985
-7.975
-7.95
-7.91
-7.87
-7.8
-7.78
-7.83
-7.945
-8.08
-8.135
-8.145
-8.115
-8.04
-7.93
-7.78
-7.62
-7.47
-7.33
-7.23
-7.17
-7.12
-7.055
-7.005
-6.995
-6.945
-6.9
-6.895
-6.905
-7.025
-7.295
-7.665
-8.035
-8.355
-8.595
-8.735
-8.81
-8.875
-8.925
-8.97
-9.015
-9.045
-9.08
-9.075
-9.075
-9.09
-9.085
-9.08
-9.045
-8.965
-8.885
-8.79
-8.7
-8.58
-8.46
-8.32
-8.21
-8.15
-8.12
-8.08
-8.005
-7.975
-7.975
-8.02
-8.06
-8.07
-8.07
-8.05
-8.015
-7.985
-7.96
-7.935
-7.93
-7.925
-7.915
-7.915
-7.915
-7.92
-7.92
-7.9
-7.89
-7.895
-7.92
-7.965
-8.03
-8.08
-8.12
-8.14
-8.135
-8.11
-8.08
-8.075
-8.09
-8.095
-8.105
-8.145
-8.165
-8.21
-8.225
-8.25
-8.235
-8.21
-8.185
-8.15
-8.125
-8.14
-8.145
-8.14
-8.135
-8.15
-8.155
-8.135
-8.12
-8.065
-8.015
-7.975
-7.94
-7.905
-7.91
-7.935
-8.0
-8.02
-8.06
-8.04
-8.035
-8.04
-8.05
-8.025
-8.0
-7.97
-7.945
-7.92
-7.905
-7.91
-7.89
-7.905
-7.915
-7.91
-7.91
-7.9
-7.89
-7.9
-7.875
-7.875
-7.905
-7.885
-7.88
-7.895
-7.92
-7.93
-7.94
-7.915
-7.905
-7.875
-7.825
-7.83
-7.835
-7.865
-7.905
-7.95
-7.95
-7.94
-7.92
-7.905
-7.895
-7.89
-7.92
-7.92
-7.935
-7.975
-8.015
-8.05
-8.04
-8.025
-8.005
-7.965
-7.95
-7.92
-7.905
-7.915
-7.905
-7.92
-7.94
-7.965
-7.975
-7.98
-8.0
-7.98
-7.95
-7.93
-7.92
-7.91
-7.905
-7.92
-7.9
-7.91
-7.925
-7.915
-7.915
-7.91
-7.895
-7.895
-7.905
-7.93
-7.925
-7.95
-7.975
-7.99
-7.97
-7.94
-7.885
-7.82
-7.775
-7.76
-7.77
-7.805
-7.835
-7.83
-7.81
-7.775
-7.755
-7.72
-7.755
-7.805
-7.825
-7.84
-7.825
-7.81
-7.78
-7.735
-7.705
-7.675
-7.64
-7.645
-7.645
-7.695
-7.78
-7.87
-7.93
-7.955
-7.91
-7.895
-7.86
-7.875
-7.92
-7.98
-8.015
-8.025
-8.025
-8.01
-7.99
-7.965
-7.93
-7.91
-7.9
-7.885
-7.88
-7.91
-7.925
-7.95
-7.965
-7.975
-7.98
-7.965
-7.965
-7.95
-7.945
-7.935
-7.93
-7.94
-7.965
-7.98
-7.955
-7.895
-7.78
-7.665
-7.515
-7.385
-7.315
-7.285
-7.28
-7.255
-7.16
-7.03
-6.86
-6.73
-6.705
-6.815
-7.085
-7.505
-7.975
-8.38
-8.645
-8.805
-8.89
-8.955
-8.975
-8.98
-8.975
-8.975
-8.97
-8.975
-8.98
-8.99
-8.99
-8.95
-8.91
-8.85
-8.815
-8.76
-8.65
-8.535
-8.415
-8.305
-8.21
-8.105
-8.03
-8.0
-7.965
-7.97
-7.955
-7.92
-7.88
-7.835
-7.825
-7.81
-7.765
-7.725
-7.69
-7.71
-7.78
-7.9
-8.005
-8.075
-8.085
-8.055
-7.98
-7.9
-7.86
-7.865
-7.865
-7.915
-7.91
-7.93
-7.945
-7.93
-7.905
-7.895
-7.905
-7.91
-7.93
-7.94
-7.945
-7.965
-7.97
-7.975
-7.98
-7.99
-7.99
-7.99
-7.975
-7.98
-7.98
-7.99
-8.015
-8.035
-8.035
-8.035
-8.025
-8.005
-7.97
-7.965
-7.945
-7.92
-7.91
-7.895
-7.89
-7.875
-7.87
-7.875
-7.875
-7.865
-7.845
-7.835
-7.83
-7.805
-7.795
-7.79
-7.765
-7.765
-7.765
-7.78
-7.77
-7.78
-7.75
-7.74
-7.75
-7.755
-7.79
-7.81
-7.81
-7.795
-7.8
-7.81
-7.8
-7.78
-7.77
-7.76
-7.75
-7.75
-7.765
-7.77
-7.78
-7.75
-7.7
-7.655
-7.62
-7.61
-7.625
-7.67
-7.695
-7.69
-7.695
-7.73
-7.75
-7.785
-7.79
-7.81
-7.825
-7.85
-7.81
-7.795
-7.775
-7.745
-7.73
-7.705
-7.72
-7.72
-7.71
-7.705
-7.67
-7.64
-7.575
-7.525
-7.47
-7.46
-7.485
-7.545
-7.61
-7.615
-7.635
-7.625
-7.645
-7.65
-7.66
-7.685
-7.705
-7.68
-7.67
-7.64
-7.63
-7.67
-7.71
-7.78
-7.835
-7.845
-7.83
-7.795
-7.745
-7.735
-7.73
-7.755
-7.765
-7.77
-7.765
-7.765
-7.765
-7.76
-7.745
-7.73
-7.72
-7.73
-7.725
-7.735
-7.74
-7.71
-7.69
-7.695
-7.69
-7.705
-7.725
-7.72
-7.715
-7.685
-7.7
-7.69
-7.69
-7.68
-7.645
-7.615
-7.59
-7.54
-7.495
-7.48
-7.535
-7.64
-7.73
-7.795
-7.78
-7.745
-7.705
-7.67
-7.655
-7.67
-7.64
-7.595
-7.54
-7.445
-7.325
-7.195
-7.085
-7.05
-7.08
-7.11
-7.145
-7.09
-6.93
-6.72
-6.515
-6.35
-6.31
-6.405
-6.63
-6.97
-7.36
-7.695
-7.925
-8.08
-8.2
-8.335
-8.445
-8.53
-8.575
-8.585
-8.585
-8.56
-8.555
-8.58
-8.61
-8.64
-8.645
-8.61
-8.555
-8.44
-8.325
-8.175
-8.045
-7.92
-7.78
-7.65
-7.545
-7.51
-7.52
-7.58
-7.605
-7.63
-7.62
-7.59
-7.54
-7.49
-7.46
-7.445
-7.475
-7.54
-7.53
-7.545
-7.545
-7.57
-7.635
-7.67
-7.675
-7.665
-7.64
-7.615
-7.62
-7.63
-7.625
-7.6
-7.615
-7.635
-7.67
-7.7
-7.72
-7.74
-7.76
-7.775
-7.795
-7.8
-7.795
-7.77
-7.74
-7.695
-7.68
-7.66
-7.71
-7.75
-7.76
-7.75
-7.765
-7.78
-7.815
-7.83
-7.805
-7.75
-7.7
-7.67
-7.675
-7.685
-7.69
-7.655
-7.62
-7.575
-7.58
-7.585
-7.645
-7.68
-7.67
-7.625
-7.515
-7.43
-7.375
-7.435
-7.53
-7.59
-7.61
-7.6
-7.57
-7.545
-7.545
-7.55
-7.545
-7.53
-7.515
-7.52
-7.515
-7.53
-7.53
-7.58
-7.58
-7.615
-7.625
-7.64
-7.655
-7.635
-7.59
-7.605
-7.625
-7.67
-7.685
-7.675
-7.65
-7.595
-7.52
-7.485
-7.455
-7.45
-7.475
-7.485
-7.5
-7.485
-7.455
-7.4
-7.35
-7.33
-7.32
-7.325
-7.35
-7.34
-7.355
-7.335
-7.315
-7.275
-7.235
-7.22
-7.23
-7.275
-7.29
-7.29
-7.265
-7.275
-7.295
-7.315
-7.3
-7.29
-7.255
-7.235
-7.27
-7.29
-7.295
-7.29
-7.275
-7.27
-7.27
-7.335
-7.36
-7.38
-7.37
-7.345
-7.32
-7.295
-7.3
-7.31
-7.32
-7.295
-7.3
-7.295
-7.295
-7.305
-7.31
-7.33
-7.355
-7.385
-7.36
-7.28
-7.185
-7.13
-7.145
-7.2
-7.235
-7.235
-7.175
-7.13
-7.07
-7.025
-7.03
-7.05
-7.095
-7.08
-7.075
-7.08
-7.105
-7.15
-7.17
-7.22
-7.275
-7.32
-7.335
-7.28
-7.205
-7.15
-7.14
-7.14
-7.17
-7.215
-7.25
-7.285
-7.275
-7.245
-7.29
-7.34
-7.39
-7.43
-7.46
-7.505
-7.515
-7.49
-7.49
-7.475
-7.465
-7.455
-7.46
-7.475
-7.5
-7.55
-7.595
-7.59
-7.575
-7.52
-7.455
-7.42
-7.44
-7.5
-7.58
-7.63
-7.68
-7.67
-7.66
-7.63
-7.635
-7.65
-7.62
-7.6
-7.54
-7.465
-7.36
-7.27
-7.215
-7.22
-7.24
-7.26
-7.225
-7.125
-6.93
-6.695
-6.51
-6.47
-6.615
-6.935
-7.37
-7.775
-8.09
-8.255
-8.325
-8.34
-8.34
-8.39
-8.435
-8.49
-8.54
-8.56
-8.53
-8.55
-8.535
-8.535
-8.5
-8.44
-8.36
-8.255
-8.125
-8.02
-7.93
-7.845
-7.765
-7.665
-7.595
-7.55
-7.54
-7.555
-7.555
-7.53
-7.525
-7.51
-7.52
-7.51
-7.485
-7.445
-7.445
-7.475
-7.51
-7.56
-7.555
-7.53
-7.47
-7.435
-7.43
-7.445
-7.505
-7.53
-7.575
-7.585
-7.585
-7.56
-7.55
-7.56
-7.58
-7.595
-7.61
-7.62
-7.68
-7.72
-7.745
-7.76
-7.75
-7.72
-7.635
-7.585
-7.575
-7.635
-7.675
-7.695
-7.67
-7.65
-7.655
-7.695
-7.735
-7.77
-7.77
-7.745
-7.72
-7.665
-7.62
-7.61
-7.6
-7.6
-7.63
-7.645
-7.65
-7.63
-7.6
-7.585
-7.555
-7.52
-7.515
-7.5
-7.51
-7.535
-7.535
-7.53
-7.52
-7.49
-7.445
-7.43
-7.43
-7.48
-7.49
-7.49
-7.5
-7.495
-7.475
-7.45
-7.455
-7.5
-7.52
-7.535
-7.54
-7.51
-7.49
-7.475
-7.47
-7.48
-7.48
-7.455
-7.44
-7.43
-7.445
-7.475
-7.49
-7.515
-7.525
-7.525
-7.505
-7.475
-7.415
-7.405
-7.41
-7.46
-7.51
-7.525
-7.495
-7.49
-7.495
-7.495
-7.495
-7.49
-7.5
-7.485
-7.485
-7.49
-7.495
-7.51
-7.525
-7.52
-7.52
-7.52
-7.51
-7.515
-7.52
-7.545
-7.54
-7.52
-7.51
-7.495
-7.475
-7.47
-7.505
-7.545
-7.56
-7.575
-7.55
-7.535
-7.525
-7.53
-7.53
-7.515
-7.495
-7.45
-7.42
-7.395
-7.38
-7.385
-7.395
-7.4
-7.4
-7.395
-7.355
-7.34
-7.335
-7.33
-7.335
-7.325
-7.325
-7.355
-7.4
-7.41
-7.44
-7.435
-7.445
-7.445
-7.42
-7.43
-7.435
-7.42
-7.425
-7.435
-7.455
-7.465
-7.475
-7.495
-7.52
-7.525
-7.52
-7.515
-7.52
-7.525
-7.58
-7.6
-7.63
-7.665
-7.655
-7.63
-7.615
-7.58
-7.565
-7.555
-7.55
-7.54
-7.56
-7.58
-7.585
-7.57
-7.55
-7.565
-7.58
-7.61
-7.64
-7.63
-7.605
-7.595
-7.585
-7.61
-7.67
-7.695
-7.72
-7.685
-7.615
-7.54
-7.44
-7.37
-7.335
-7.27
-7.26
-7.3
-7.295
-7.265
-7.135
-6.935
-6.715
-6.52
-6.45
-6.555
-6.855
-7.24
-7.64
-7.93
-8.13
-8.215
-8.27
-8.315
-8.39
-8.5
-8.575
-8.635
-8.65
-8.615
-8.58
-8.555
-8.56
-8.57
-8.565
-8.555
-8.515
-8.47
-8.365
-8.215
-8.03
-7.84
-7.72
-7.625
-7.58
-7.58
-7.585
-7.575
-7.545
-7.52
-7.51
-7.5
-7.495
-7.5
-7.52
-7.545
-7.57
-7.545
-7.535
-7.53
-7.53
-7.56
-7.545
-7.53
-7.525
-7.5
-7.5
-7.53
-7.58
-7.615
-7.625
-7.64
-7.625
-7.595
-7.595
-7.585
-7.575
-7.57
-7.6
-7.65
-7.715
-7.76
-7.765
-7.76
-7.725
-7.67
-7.645
-7.605
-7.62
-7.645
-7.715
-7.765
-7.775
-7.765
-7.735
-7.72
-7.68
-7.705
-7.71
-7.725
-7.69
-7.655
-7.615
-7.595
-7.62
-7.635
-7.66
-7.635
-7.605
-7.575
-7.55
-7.515
-7.485
-7.485
-7.52
-7.56
-7.57
-7.555
-7.545
-7.565
-7.575
-7.58
-7.565
-7.53
-7.505
-7.495
-7.49
-7.51
-7.515
-7.5
-7.53
-7.55
-7.615
-7.65
-7.645
-7.62
-7.575
-7.54
-7.52
-7.52
-7.515
-7.53
-7.545
-7.575
-7.595
-7.595
-7.56
-7.535
-7.51
-7.495
-7.53
-7.57
-7.59
-7.61
-7.585
-7.53
-7.525
-7.56
-7.625
-7.635
-7.62
-7.575
-7.53
-7.56
-7.59
-7.61
-7.59
-7.535
-7.495
-7.475
-7.5
-7.58
-7.665
-7.68
-7.66
-7.585
-7.555
-7.585
-7.625
-7.625
-7.61
-7.58
-7.56
-7.56
-7.585
-7.595
-7.55
-7.45
-7.375
-7.38
-7.47
-7.55
-7.575
-7.525
-7.44
-7.325
-7.29
-7.295
-7.32
-7.4
-7.48
-7.54
-7.555
-7.515
-7.475
-7.435
-7.425
-7.42
-7.46
-7.475
-7.43
-7.395
-7.37
-7.41
-7.5
-7.59
-7.66
-7.65
-7.58
-7.49
-7.435
-7.46
-7.505
-7.51
-7.52
-7.59
-7.68
-7.74
-7.715
-7.685
-7.68
-7.7
-7.725
-7.715
-7.635
-7.57
-7.56
-7.615
-7.71
-7.84
-7.89
-7.845
-7.7
-7.57
-7.51
-7.53
-7.605
-7.725
-7.865
-7.915
-7.905
-7.88
-7.86
-7.865
-7.835
-7.76
-7.67
-7.58
-7.465
-7.42
-7.53
-7.745
-7.895
-7.77
-7.44
-7.015
-6.7
-6.605
-6.7
-6.85
-6.94
-7.06
-7.23
-7.41
-7.58
-7.71
-7.86
-8.09
-8.355
-8.525
-8.56
-8.565
-8.58
-8.505
-8.315
-8.125
-8.12
-8.345
-8.6
-8.815
-8.92
-8.81
-8.495
-8.08
-7.72
-7.555
-7.67
-7.895
-8.02
-7.95
-7.775
-7.645
-7.645
-7.69
-7.67
-7.53
-7.41
-7.36
-7.35
-7.33
-7.42
-7.54
-7.635
-7.74
-7.775
-7.74
-7.615
-7.43
-7.265
-7.14
-7.125
-7.205
-7.405
-7.58
-7.66
-7.65
-7.59
-7.565
-7.58
-7.62
-7.66
-7.635
-7.575
-7.48
-7.425
-7.395
-7.425
-7.48
-7.505
-7.59
-7.77
-7.845
-7.815
-7.685
-7.55
-7.485
-7.52
-7.605
-7.64
-7.615
-7.545
-7.5
-7.475
-7.46
-7.475
-7.515
-7.53
-7.51
-7.465
-7.435
-7.485
-7.605
-7.755
-7.755
-7.625
-7.415
-7.24
-7.155
-7.17
-7.265
-7.405
-7.545
-7.615
-7.57
-7.49
-7.385
-7.295
-7.24
-7.235
-7.29
-7.34
-7.37
-7.385
-7.39
-7.42
-7.395
-7.33
-7.245
-7.22
-7.245
-7.365
-7.54
-7.59
-7.525
-7.39
-7.285
-7.225
-7.21
-7.22
-7.25
-7.285
-7.275
-7.295
-7.33
-7.365
-7.395
-7.43
-7.455
-7.39
-7.335
-7.255
-7.275
-7.37
-7.445
-7.44
-7.37
-7.31
-7.255
-7.265
-7.295
-7.325
-7.345
-7.365
-7.36
-7.35
-7.34
-7.33
-7.325
-7.345
-7.36
-7.35
-7.325
-7.295
-7.31
-7.345
-7.325
-7.315
-7.295
-7.27
-7.245
-7.235
-7.275
-7.345
-7.395
-7.37
-7.315
-7.235
-7.195
-7.17
-7.195
-7.21
-7.21
-7.245
-7.26
-7.28
-7.265
-7.245
-7.22
-7.23
-7.205
-7.19
-7.185
-7.21
-7.225
-7.255
-7.3
-7.345
-7.385
-7.4
-7.43
-7.45
-7.485
-7.535
-7.555
-7.575
-7.56
-7.585
-7.615
-7.65
-7.73
-7.755
-7.76
-7.75
-7.755
-7.75
-7.75
-7.77
-7.805
-7.85
-7.885
-7.905
-7.905
-7.895
-7.875
-7.835
-7.785
-7.78
-7.805
-7.83
-7.845
-7.89
-7.915
-7.925
-7.935
-7.91
-7.865
-7.805
-7.78
-7.85
-7.955
-8.06
-8.105
-8.085
-8.025
-7.96
-7.865
-7.745
-7.65
-7.59
-7.535
-7.55
-7.57
-7.57
-7.49
-7.325
-7.075
-6.87
-6.74
-6.755
-6.96
-7.31
-7.73
-8.115
-8.37
-8.49
-8.545
-8.565
-8.575
-8.625
-8.655
-8.655
-8.665
-8.695
-8.745
-8.775
-8.8
-8.785
-8.775
-8.76
-8.705
-8.63
-8.49
-8.335
-8.145
-7.99
-7.86
-7.8
-7.805
-7.825
-7.84
-7.86
-7.9
-7.91
-7.925
-7.91
-7.875
-7.85
-7.835
-7.83
-7.835
-7.865
-7.875
-7.855
-7.82
-7.8
-7.805
-7.845
-7.885
-7.88
-7.875
-7.875
-7.895
-7.92
-7.945
-7.955
-7.945
-7.955
-7.96
-7.97
-7.98
-8.0
-8.005
-8.01
-8.0
-7.99
-7.99
-7.985
-7.99
-7.995
-7.995
-7.98
-7.955
-7.935
-7.915
-7.935
-7.945
-7.975
-7.99
-7.985
-7.95
-7.93
-7.92
-7.895
-7.865
-7.835
-7.85
-7.885
-7.925
-7.97
-7.975
-7.92
-7.85
-7.8
-7.74
-7.7
-7.69
-7.715
-7.745
-7.775
-7.78
-7.775
-7.78
-7.765
-7.75
-7.735
-7.725
-7.705
-7.71
-7.74
-7.74
-7.74
-7.725
-7.69
-7.665
-7.64
-7.65
-7.7
-7.76
-7.805
-7.825
-7.805
-7.77
-7.79
-7.825
-7.83
-7.83
-7.815
-7.79
-7.79
-7.78
-7.75
-7.745
-7.745
-7.75
-7.785
-7.805
-7.805
-7.81
-7.82
-7.795
-7.8
-7.755
-7.715
-7.715
-7.73
-7.78
-7.84
-7.875
-7.9
-7.875
-7.85
-7.83
-7.795
-7.785
-7.785
-7.79
-7.81
-7.825
-7.805
-7.76
-7.73
-7.73
-7.755
-7.805
-7.815
-7.8
-7.775
-7.74
-7.715
-7.71
-7.7
-7.645
-7.6
-7.58
-7.58
-7.615
-7.645
-7.66
-7.63
-7.64
-7.66
-7.655
-7.635
-7.59
-7.535
-7.495
-7.47
-7.47
-7.515
-7.555
-7.58
-7.605
-7.605
-7.585
-7.605
-7.605
-7.61
-7.64
-7.64
-7.575
-7.54
-7.52
-7.51
-7.505
-7.58
-7.655
-7.765
-7.8
-7.805
-7.745
-7.69
-7.67
-7.685
-7.72
-7.73
-7.73
-7.715
-7.72
-7.725
-7.745
-7.755
-7.735
-7.7
-7.665
-7.655
-7.66
-7.715
-7.79
-7.85
-7.895
-7.895
-7.84
-7.775
-7.715
-7.675
-7.655
-7.67
-7.725
-7.795
-7.87
-7.89
-7.865
-7.77
-7.615
-7.445
-7.295
-7.2
-7.19
-7.24
-7.28
-7.245
-7.125
-6.935
-6.73
-6.6
-6.58
-6.72
-7.01
-7.405
-7.84
-8.185
-8.395
-8.48
-8.485
-8.52
-8.565
-8.64
-8.68
-8.685
-8.685
-8.685
-8.7
-8.705
-8.765
-8.78
-8.765
-8.71
-8.625
-8.54
-8.445
-8.32
-8.165
-8.05
-7.945
-7.85
-7.785
-7.76
-7.755
-7.75
-7.75
-7.75
-7.73
-7.705
-7.685
-7.67
-7.675
-7.675
-7.7
-7.675
-7.645
-7.665
-7.645
-7.65
-7.64
-7.64
-7.655
-7.675
-7.7
-7.705
-7.695
-7.715
-7.71
-7.735
-7.715
-7.705
-7.725
-7.74
-7.76
-7.78
-7.825
-7.885
-7.915
-7.94
-7.93
-7.895
-7.87
-7.865
-7.85
-7.85
-7.865
-7.855
-7.87
-7.885
-7.88
-7.885
-7.885
-7.845
-7.84
-7.825
-7.835
-7.855
-7.865
-7.85
-7.8
-7.78
-7.755
-7.725
-7.705
-7.675
-7.685
-7.695
-7.7
-7.69
-7.68
-7.67
-7.645
-7.63
-7.62
-7.635
-7.63
-7.6
-7.595
-7.62
-7.645
-7.67
-7.68
-7.67
-7.655
-7.655
-7.64
-7.63
-7.64
-7.63
-7.595
-7.59
-7.59
-7.6
-7.61
-7.62
-7.62
-7.615
-7.61
-7.605
-7.59
-7.575
-7.59
-7.58
-7.58
-7.595
-7.585
-7.565
-7.58
-7.59
-7.595
-7.6
-7.615
-7.63
-7.655
-7.665
-7.685
-7.67
-7.645
-7.66
-7.62
-7.615
-7.635
-7.64
-7.65
-7.67
-7.685
-7.69
-7.69
-7.705
-7.7
-7.7
-7.68
-7.68
-7.695
-7.705
-7.705
-7.69
-7.695
-7.7
-7.705
-7.715
-7.715
-7.72
-7.735
-7.72
-7.7
-7.695
-7.645
-7.625
-7.58
-7.565
-7.555
-7.555
-7.59
-7.615
-7.62
-7.65
-7.63
-7.595
-7.565
-7.535
-7.53
-7.545
-7.575
-7.615
-7.645
-7.675
-7.69
-7.68
-7.655
-7.63
-7.58
-7.555
-7.54
-7.565
-7.585
-7.625
-7.665
-7.685
-7.7
-7.68
-7.675
-7.67
-7.68
-7.67
-7.685
-7.73
-7.745
-7.75
-7.76
-7.745
-7.75
-7.72
-7.71
-7.7
-7.71
-7.7
-7.71
-7.69
-7.68
-7.685
-7.7
-7.74
-7.76
-7.8
-7.82
-7.805
-7.795
-7.78
-7.785
-7.79
-7.795
-7.815
-7.825
-7.83
-7.805
-7.78
-7.71
-7.62
-7.53
-7.455
-7.43
-7.42
-7.405
-7.345
-7.22
-7.0
-6.76
-6.58
-6.51
-6.625
-6.91
-7.295
-7.7
-8.025
-8.245
-8.35
-8.4
-8.45
-8.485
-8.55
-8.59
-8.62
-8.62
-8.595
-8.62
-8.63
-8.625
-8.61
-8.58
-8.515
-8.44
-8.345
-8.225
-8.08
-7.935
-7.825
-7.72
-7.67
-7.635
-7.65
-7.655
-7.655
-7.65
-7.645
-7.645
-7.615
-7.6
-7.59
-7.59
-7.62
-7.62
-7.65
-7.66
-7.66
-7.635
-7.645
-7.65
-7.665
-7.695
-7.705
-7.7
-7.715
-7.69
-7.675
-7.66
-7.635
-7.64
-7.665
-7.73
-7.76
-7.785
-7.765
-7.72
-7.67
-7.65
-7.66
-7.7
-7.705
-7.74
-7.75
-7.775
-7.785
-7.77
-7.74
-7.68
-7.65
-7.68
-7.725
-7.78
-7.805
-7.79
-7.735
-7.68
-7.67
-7.64
-7.635
-7.625
-7.6
-7.585
-7.595
-7.63
-7.67
-7.65
-7.63
-7.595
-7.555
-7.575
-7.58
-7.595
-7.63
-7.655
-7.66
-7.65
-7.615
-7.58
-7.555
-7.51
-7.5
-7.475
-7.445
-7.405
-7.405
-7.42
-7.45
-7.425
-7.375
-7.335
-7.28
-7.29
-7.355
-7.41
-7.475
-7.505
-7.495
-7.485
-7.485
-7.5
-7.52
-7.52
-7.505
-7.48
-7.44
-7.395
-7.42
-7.46
-7.52
-7.59
-7.615
-7.65
-7.675
-7.685
-7.685
-7.695
-7.715
-7.735
-7.755
-7.78
-7.77
-7.74
-7.7
-7.67
-7.655
-7.665
-7.695
-7.72
-7.75
-7.775
-7.785
-7.75
-7.665
-7.59
-7.52
-7.51
-7.545
-7.59
-7.625
-7.65
-7.64
-7.61
-7.54
-7.485
-7.415
-7.395
-7.405
-7.44
-7.49
-7.525
-7.565
-7.575
-7.565
-7.56
-7.555
-7.54
-7.515
-7.5
-7.47
-7.425
-7.36
-7.305
-7.25
-7.245
-7.28
-7.315
-7.34
-7.27
-7.095
-6.855
-6.6
-6.485
-6.54
-6.835
-7.285
-7.71
-8.04
-8.205
-8.245
-8.22
-8.205
-8.22
-8.25
-8.295
-8.31
-8.285
-8.25
-8.19
-8.145
-8.08
-8.025
-7.97
-7.92
-7.885
-7.82
-7.72
-7.59
-7.47
-7.37
-7.315
-7.295
-7.285
-7.25
-7.235
-7.215
-7.2
-7.175
-7.135
-7.12
-7.09
-7.085
-7.075
-7.065
-7.09
-7.155
-7.235
-7.305
-7.36
-7.36
-7.335
-7.285
-7.245
-7.22
-7.23
-7.26
-7.295
-7.315
-7.28
-7.285
-7.315
-7.35
-7.39
-7.435
-7.43
-7.44
-7.45
-7.45
-7.42
-7.4
-7.365
-7.345
-7.315
-7.29
-7.265
-7.29
-7.285
-7.295
-7.295
-7.275
-7.235
-7.18
-7.165
-7.15
-7.15
-7.15
-7.14
-7.135
-7.11
-7.075
-7.035
-6.99
-6.91
-6.845
-6.755
-6.68
-6.6
-6.525
-6.455
-6.39
-6.335
-6.28
-6.195
-6.1
-6.005
-5.915
-5.885
-5.85
-5.825
-5.785
-5.775
-5.765
-5.745
-5.725
-5.69
-5.655
-5.605
-5.565
-5.54
-5.52
-5.525
-5.515
-5.535
-5.58
-5.62
-5.65
-5.65
-5.605
-5.545
-5.495
-5.455
-5.465
-5.46
-5.445
-5.435
-5.435
-5.43
-5.405
-5.375
-5.33
-5.31
-5.275
-5.265
-5.265
-5.265
-5.28
-5.285
-5.27
-5.28
-5.265
-5.24
-5.215
-5.2
-5.17
-5.135
-5.125
-5.155
-5.135
-5.13
-5.135
-5.14
-5.14
-5.14
-5.125
-5.115
-5.115
-5.095
-5.08
-5.065
-5.055
-5.06
-5.08
-5.1
-5.11
-5.09
-5.075
-5.04
-5.04
-5.035
-5.05
-5.065
-5.095
-5.11
-5.11
-5.095
-5.095
-5.06
-5.055
-5.03
-5.005
-4.995
-5.01
-5.025
-5.05
-5.065
-5.055
-5.06
-5.065
-5.055
-5.035
-5.01
-4.995
-4.985
-4.965
-4.98
-4.985
-4.98
-5.0
-5.015
-5.03
-5.01
-5.02
-5.015
-4.98
-5.0
-4.99
-4.985
-5.02
-5.03
-5.05
-5.05
-5.02
-4.98
-4.94
-4.94
-4.945
-4.94
-4.93
-4.92
-4.905
-4.93
-4.935
-4.92
-4.915
-4.905
-4.895
-4.865
-4.84
-4.83
-4.835
-4.875
-4.915
-4.955
-4.975
-5.0
-4.99
-4.95
-4.93
-4.89
-4.9
-4.915
-4.905
-4.895
-4.915
-4.945
-4.975
-4.995
-5.025
-5.005
-4.995
-5.0
-5.025
-5.065
-5.08
-5.105
-5.135
-5.175
-5.21
-5.22
-5.225
-5.19
-5.155
-5.145
-5.175
-5.22
-5.265
-5.28
-5.26
-5.23
-5.21
-5.22
-5.235
-5.265
-5.27
-5.27
-5.26
-5.27
-5.27
-5.265
-5.295
-5.34
-5.365
-5.39
-5.37
-5.29
-5.195
-5.065
-4.945
-4.88
-4.905
-4.975
-5.04
-5.02
-4.975
-4.865
-4.73
-4.605
-4.515
-4.51
-4.66
-4.915
-5.235
-5.55
-5.785
-5.945
-6.045
-6.14
-6.23
-6.275
-6.345
-6.4
-6.435
-6.45
-6.445
-6.445
-6.45
-6.48
-6.54
-6.58
-6.6
-6.54
-6.455
-6.33
-6.21
-6.06
-5.955
-5.89
-5.82
-5.785
-5.78
-5.8
-5.795
-5.785
-5.795
-5.81
-5.82
-5.82
-5.815
-5.8
-5.805
-5.825
-5.84
-5.85
-5.85
-5.85
-5.875
-5.875
-5.89
-5.885
-5.88
-5.87
-5.885
-5.945
-6.0
-6.02
-6.025
-6.04
-6.03
-6.04
-6.025
-6.02
-5.995
-5.99
-5.985
-6.015
-6.045
-6.065
-6.07
-6.03
-6.005
-5.98
-5.985
-6.015
-6.05
-6.05
-6.085
-6.125
-6.15
-6.125
-6.11
-6.1
-6.05
-6.04
-6.015
-5.975
-5.95
-5.945
-5.975
-6.03
-6.08
-6.125
-6.1
-6.065
-6.0
-5.945
-5.925
-5.92
-5.935
-5.955
-5.975
-5.99
-5.98
-5.975
-5.975
-5.95
-5.97
-6.015
-6.015
-6.025
-6.0
-5.98
-5.975
-6.0
-6.015
-6.045
-6.04
-6.025
-6.01
-5.995
-6.04
-6.075
-6.1
-6.12
-6.15
-6.13
-6.115
-6.125
-6.105
-6.085
-6.085
-6.07
-6.065
-6.045
-6.05
-6.075
-6.09
-6.15
-6.185
-6.225
-6.24
-6.24
-6.23
-6.205
-6.185
-6.17
-6.17
-6.17
-6.175
-6.215
-6.225
-6.21
-6.175
-6.2
-6.22
-6.275
-6.34
-6.355
-6.315
-6.27
-6.255
-6.265
-6.28
-6.31
-6.31
-6.3
-6.29
-6.255
-6.245
-6.24
-6.245
-6.25
-6.255
-6.265
-6.275
-6.305
-6.325
-6.31
-6.315
-6.27
-6.235
-6.205
-6.175
-6.18
-6.165
-6.17
-6.135
-6.115
-6.12
-6.13
-6.165
-6.18
-6.2
-6.22
-6.23
-6.255
-6.295
-6.305
-6.295
-6.255
-6.24
-6.22
-6.21
-6.19
-6.185
-6.175
-6.18
-6.19
-6.205
-6.225
-6.24
-6.265
-6.275
-6.295
-6.295
-6.3
-6.31
-6.305
-6.29
-6.28
-6.25
-6.29
-6.3
-6.33
-6.36
-6.355
-6.345
-6.325
-6.3
-6.285
-6.26
-6.275
-6.295
-6.325
-6.36
-6.38
-6.41
-6.4
-6.38
-6.325
-6.285
-6.305
-6.375
-6.42
-6.435
-6.4
-6.355
-6.295
-6.2
-6.105
-6.04
-6.01
-6.02
-6.045
-6.015
-5.9
-5.74
-5.545
-5.415
-5.445
-5.635
-5.96
-6.355
-6.735
-7.03
-7.225
-7.32
-7.38
-7.415
-7.44
-7.46
-7.475
-7.49
-7.485
-7.51
-7.515
-7.525
-7.51
-7.475
-7.425
-7.37
-7.305
-7.23
-7.125
-6.99
-6.86
-6.705
-6.595
-6.505
-6.465
-6.435
-6.42
-6.395
-6.39
-6.395
-6.435
-6.465
-6.46
-6.455
-6.42
-6.37
-6.345
-6.31
-6.335
-6.33
-6.35
-6.355
-6.36
-6.36
-6.325
-6.335
-6.37
-6.415
-6.45
-6.465
-6.46
-6.44
-6.425
-6.43
-6.43
-6.445
-6.44
-6.44
-6.44
-6.435
-6.45
-6.445
-6.435
-6.435
-6.475
-6.52
-6.54
-6.58
-6.575
-6.54
-6.515
-6.48
-6.46
-6.465
-6.48
-6.48
-6.47
-6.475
-6.435
-6.41
-6.41
-6.415
-6.415
-6.405
-6.375
-6.365
-6.35
-6.335
-6.355
-6.39
-6.425
-6.44
-6.425
-6.395
-6.34
-6.295
-6.295
-6.31
-6.325
-6.33
-6.33
-6.32
-6.325
-6.345
-6.37
-6.38
-6.375
-6.365
-6.345
-6.34
-6.315
-6.29
-6.295
-6.315
-6.35
-6.395
-6.435
-6.43
-6.405
-6.38
-6.37
-6.375
-6.37
-6.37
-6.375
-6.38
-6.375
-6.4
-6.415
-6.44
-6.445
-6.435
-6.42
-6.4
-6.415
-6.445
-6.465
-6.46
-6.48
-6.49
-6.51
-6.485
-6.45
-6.415
-6.38
-6.38
-6.41
-6.46
-6.47
-6.465
-6.465
-6.475
-6.49
-6.495
-6.485
-6.47
-6.455
-6.41
-6.415
-6.41
-6.42
-6.43
-6.45
-6.465
-6.48
-6.49
-6.47
-6.415
-6.35
-6.33
-6.34
-6.395
-6.425
-6.445
-6.425
-6.395
-6.375
-6.365
-6.365
-6.36
-6.34
-6.3
-6.29
-6.28
-6.27
-6.3
-6.33
-6.36
-6.365
-6.375
-6.355
-6.345
-6.365
-6.395
-6.42
-6.43
-6.42
-6.4
-6.38
-6.39
-6.425
-6.43
-6.44
-6.43
-6.41
-6.41
-6.44
-6.465
-6.49
-6.485
-6.475
-6.5
-6.52
-6.54
-6.565
-6.57
-6.555
-6.515
-6.495
-6.5
-6.565
-6.61
-6.625
-6.63
-6.62
-6.605
-6.6
-6.595
-6.6
-6.59
-6.57
-6.535
-6.525
-6.525
-6.555
-6.62
-6.655
-6.635
-6.63
-6.57
-6.465
-6.335
-6.205
-6.115
-6.1
-6.17
-6.28
-6.335
-6.295
-6.145
-5.955
-5.78
-5.725
-5.755
-5.985
-6.395
-6.9
-7.345
-7.645
-7.76
-7.75
-7.725
-7.67
-7.63
-7.595
-7.59
-7.62
-7.64
-7.66
-7.64
-7.57
-7.505
-7.46
-7.485
-7.505
-7.505
-7.375
-7.225
-7.06
-6.895
-6.72
-6.595
-6.5
-6.48
-6.535
-6.63
-6.695
-6.695
-6.68
-6.635
-6.595
-6.58
-6.525
-6.47
-6.445
-6.485
-6.57
-6.66
-6.695
-6.71
-6.7
-6.675
-6.67
-6.62
-6.595
-6.63
-6.68
-6.735
-6.775
-6.74
-6.685
-6.655
-6.64
-6.67
-6.765
-6.825
-6.865
-6.88
-6.86
-6.815
-6.78
-6.7
-6.71
-6.765
-6.84
-6.89
-6.92
-6.91
-6.865
-6.77
-6.72
-6.73
-6.78
-6.84
-6.885
-6.915
-6.9
-6.875
-6.865
-6.88
-6.905
-6.885
-6.86
-6.795
-6.785
-6.835
-6.89
-6.89
-6.83
-6.75
-6.73
-6.78
-6.83
-6.89
-6.935
-6.94
-6.925
-6.88
-6.835
-6.84
-6.83
-6.85
-6.85
-6.88
-6.89
-6.905
-6.92
-6.91
-6.91
-6.895
-6.895
-6.945
-6.985
-7.02
-7.035
-7.01
-7.01
-7.015
-7.01
-7.0
-6.995
-6.945
-6.895
-6.875
-6.89
-6.91
-6.935
-6.99
-7.035
-7.05
-7.04
-7.035
-7.035
-7.05
-7.05
-7.04
-7.02
-7.005
-7.01
-7.0
-6.985
-6.995
-7.05
-7.09
-7.11
-7.115
-7.105
-7.105
-7.085
-7.065
-7.03
-7.02
-7.065
-7.09
-7.07
-7.05
-7.045
-7.055
-7.06
-7.06
-7.04
-7.005
-6.955
-6.91
-6.905
-6.925
-6.955
-6.95
-6.935
-6.91
-6.88
-6.86
-6.86
-6.835
-6.865
-6.905
-6.93
-6.955
-6.94
-6.92
-6.88
-6.885
-6.91
-6.915
-6.88
-6.885
-6.9
-6.93
-6.965
-6.97
-6.95
-6.885
-6.84
-6.835
-6.84
-6.86
-6.905
-6.955
-6.985
-7.0
-6.975
-6.955
-6.925
-6.92
-6.97
-7.045
-7.07
-7.065
-7.055
-7.02
-6.98
-6.965
-6.96
-6.955
-6.97
-7.005
-7.03
-7.055
-7.08
-7.085
-7.095
-7.065
-7.015
-6.98
-6.985
-7.01
-7.035
-7.06
-7.075
-7.07
-7.05
-7.035
-7.04
-7.085
-7.115
-7.095
-7.005
-6.91
-6.795
-6.685
-6.64
-6.65
-6.69
-6.75
-6.775
-6.74
-6.63
-6.41
-6.255
-6.155
-6.215
-6.435
-6.825
-7.23
-7.585
-7.785
-7.87
-7.88
-7.9
-7.89
-7.91
-7.93
-7.965
-8.0
-8.02
-8.0
-7.99
-7.95
-7.915
-7.89
-7.845
-7.84
-7.82
-7.755
-7.645
-7.52
-7.385
-7.245
-7.12
-7.01
-6.95
-6.91
-6.91
-6.905
-6.92
-6.93
-6.935
-6.925
-6.93
-6.9
-6.88
-6.855
-6.81
-6.81
-6.805
-6.81
-6.81
-6.82
-6.86
-6.89
-6.89
-6.89
-6.875
-6.88
-6.91
-6.935
-6.92
-6.915
-6.885
-6.885
-6.87
-6.87
-6.875
-6.89
-6.92
-6.935
-6.93
-6.96
-6.975
-6.975
-6.96
-6.965
-6.985
-7.02
-7.035
-7.05
-7.025
-6.995
-6.97
-6.965
-6.97
-6.995
-7.03
-7.025
-7.035
-6.995
-6.975
-6.945
-6.915
-6.915
-6.91
-6.92
-6.915
-6.895
-6.885
-6.88
-6.89
-6.87
-6.875
-6.85
-6.865
-6.89
-6.915
-6.9
-6.885
-6.855
-6.84
-6.845
-6.875
-6.905
-6.935
-6.965
-6.95
-6.935
-6.89
-6.88
-6.89
-6.92
-6.96
-6.98
-6.965
-6.955
-6.95
-6.93
-6.91
-6.91
-6.9
-6.935
-6.935
-6.93
-6.93
-6.94
-6.97
-7.02
-7.045
-7.04
-7.01
-6.995
-6.975
-6.95
-6.96
-6.98
-6.995
-7.005
-7.0
-7.0
-7.015
-7.04
-7.06
-7.04
-7.045
-7.04
-7.04
-7.03
-7.01
-7.015
-7.01
-7.015
-7.055
-7.07
-7.095
-7.085
-7.07
-7.04
-7.03
-7.025
-7.05
-7.07
-7.09
-7.115
-7.125
-7.095
-7.09
-7.09
-7.105
-7.135
-7.12
-7.115
-7.12
-7.1
-7.07
-7.06
-7.07
-7.08
-7.085
-7.065
-7.055
-7.02
-7.025
-7.015
-7.02
-7.04
-7.055
-7.045
-7.01
-6.995
-7.015
-7.03
-7.035
-7.04
-7.06
-7.095
-7.125
-7.165
-7.165
-7.15
-7.13
-7.115
-7.1
-7.09
-7.1
-7.13
-7.16
-7.165
-7.165
-7.175
-7.2
-7.22
-7.26
-7.31
-7.305
-7.3
-7.27
-7.25
-7.25
-7.245
-7.275
-7.32
-7.35
-7.375
-7.36
-7.315
-7.3
-7.285
-7.295
-7.3
-7.28
-7.255
-7.245
-7.265
-7.315
-7.385
-7.405
-7.39
-7.355
-7.33
-7.335
-7.32
-7.335
-7.385
-7.425
-7.44
-7.43
-7.375
-7.305
-7.2
-7.095
-7.04
-7.005
-7.04
-7.12
-7.145
-7.115
-7.025
-6.89
-6.72
-6.62
-6.65
-6.9
-7.355
-7.905
-8.39
-8.73
-8.88
-8.87
-8.815
-8.755
-8.705
-8.7
-8.68
-8.655
-8.615
-8.555
-8.555
-8.56
-8.585
-8.605
-8.605
-8.53
-8.42
-8.235
-8.055
-7.9
-7.8
-7.73
-7.67
-7.635
-7.645
-7.665
-7.705
-7.715
-7.705
-7.675
-7.645
-7.61
-7.56
-7.545
-7.515
-7.53
-7.54
-7.535
-7.535
-7.555
-7.58
-7.615
-7.625
-7.62
-7.605
-7.605
-7.605
-7.605
-7.615
-7.63
-7.665
-7.69
-7.695
-7.69
-7.675
-7.69
-7.665
-7.68
-7.685
-7.705
-7.73
-7.735
-7.735
-7.725
-7.695
-7.67
-7.635
-7.66
-7.77
-7.865
-7.87
-7.835
-7.805
-7.75
-7.73
-7.715
-7.735
-7.755
-7.76
-7.745
-7.71
-7.685
-7.655
-7.63
-7.625
-7.63
-7.645
-7.61
-7.605
-7.62
-7.6
-7.565
-7.565
-7.605
-7.625
-7.68
-7.685
-7.675
-7.645
-7.64
-7.645
-7.62
-7.62
-7.635
-7.65
-7.67
-7.68
-7.695
-7.695
-7.69
-7.685
-7.69
-7.685
-7.705
-7.69
-7.675
-7.665
-7.64
-7.63
-7.65
-7.67
-7.685
-7.73
-7.74
-7.73
-7.72
-7.695
-7.68
-7.69
-7.715
-7.73
-7.71
-7.705
-7.71
-7.755
-7.81
-7.84
-7.88
-7.895
-7.88
-7.87
-7.85
-7.84
-7.87
-7.915
-7.93
-7.95
-7.955
-7.96
-7.955
-7.94
-7.935
-7.93
-7.92
-7.915
-7.92
-7.935
-7.965
-7.995
-8.005
-7.98
-7.97
-8.01
-8.03
-8.06
-8.055
-8.035
-7.975
-7.92
-7.865
-7.88
-7.93
-7.98
-8.03
-8.025
-7.98
-7.915
-7.88
-7.875
-7.89
-7.905
-7.895
-7.885
-7.88
-7.895
-7.91
-7.92
-7.94
-7.955
-7.96
-7.95
-7.95
-7.94
-7.93
-7.955
-7.955
-7.95
-7.965
-7.99
-7.985
-7.965
-7.94
-7.935
-7.97
-7.99
-8.01
-8.03
-8.07
-8.13
-8.185
-8.215
-8.21
-8.175
-8.13
-8.1
-8.105
-8.095
-8.08
-8.045
-8.035
-8.07
-8.105
-8.16
-8.17
-8.15
-8.115
-8.095
-8.065
-8.06
-8.07
-8.08
-8.12
-8.165
-8.2
-8.25
-8.25
-8.19
-8.095
-7.93
-7.78
-7.65
-7.515
-7.445
-7.45
-7.47
-7.52
-7.555
-7.53
-7.445
-7.305
-7.17
-7.1
-7.15
-7.355
-7.745
-8.215
-8.68
-9.025
-9.21
-9.24
-9.19
-9.14
-9.165
-9.23
-9.29
-9.305
-9.3
-9.29
-9.255
-9.245
-9.27
-9.29
-9.295
-9.235
-9.135
-9.025
-8.88
-8.705
-8.56
-8.42
-8.31
-8.235
-8.175
-8.145
-8.145
-8.155
-8.175
-8.175
-8.19
-8.16
-8.165
-8.16
-8.17
-8.175
-8.145
-8.08
-8.05
-8.03
-8.04
-8.09
-8.15
-8.2
-8.215
-8.205
-8.185
-8.2
-8.2
-8.215
-8.185
-8.165
-8.145
-8.18
-8.235
-8.24
-8.225
-8.19
-8.175
-8.205
-8.26
-8.3
-8.31
-8.31
-8.305
-8.32
-8.325
-8.34
-8.36
-8.355
-8.33
-8.33
-8.305
-8.295
-8.285
-8.275
-8.265
-8.28
-8.28
-8.235
-8.2
-8.205
-8.255
-8.275
-8.23
-8.175
-8.14
-8.14
-8.14
-8.155
-8.17
-8.17
-8.16
-8.125
-8.085
-8.05
-8.03
-8.06
-8.09
-8.125
-8.12
-8.115
-8.08
-8.04
-8.015
-8.045
-8.085
-8.125
-8.14
-8.13
-8.125
-8.11
-8.12
-8.105
-8.09
-8.07
-8.07
-8.085
-8.105
-8.13
-8.17
-8.185
-8.18
-8.16
-8.105
-8.075
-8.04
-8.055
-8.09
-8.16
-8.23
-8.24
-8.22
-8.155
-8.11
-8.115
-8.115
-8.115
-8.12
-8.145
-8.165
-8.175
-8.185
-8.19
-8.2
-8.2
-8.165
-8.125
-8.095
-8.105
-8.1
-8.06
-8.04
-8.035
-8.035
-8.09
-8.12
-8.135
-8.155
-8.195
-8.24
-8.245
-8.21
-8.15
-8.11
-8.07
-8.05
-8.05
-8.035
-8.015
-7.99
-7.975
-7.98
-7.985
-7.96
-7.945
-7.955
-7.99
-8.0
-7.995
-8.015
-7.98
-7.975
-7.965
-7.985
-8.05
-8.085
-8.075
-8.045
-8.02
-8.02
-8.05
-8.085
-8.085
-8.08
-8.055
-8.055
-8.065
-8.085
-8.095
-8.105
-8.075
-8.09
-8.12
-8.21
-8.27
-8.31
-8.29
-8.255
-8.205
-8.15
-8.13
-8.11
-8.125
-8.18
-8.24
-8.26
-8.245
-8.22
-8.215
-8.2
-8.21
-8.225
-8.225
-8.2
-8.185
-8.175
-8.2
-8.2
-8.22
-8.225
-8.21
-8.165
-8.105
-8.025
-7.925
-7.825
-7.695
-7.625
-7.61
-7.63
-7.66
-7.63
-7.505
-7.325
-7.15
-7.055
-7.18
-7.52
-8.005
-8.52
-8.96
-9.26
-9.425
-9.465
-9.435
-9.395
-9.38
-9.4
-9.405
-9.405
-9.39
-9.375
-9.405
-9.41
-9.38
-9.325
-9.205
-9.045
-8.9
-8.745
-8.59
-8.49
-8.38
-8.315
-8.26
-8.265
-8.28
-8.26
-8.215
-8.21
-8.25
-8.26
-8.265
-8.25
-8.19
-8.15
-8.135
-8.13
-8.165
-8.19
-8.225
-8.225
-8.205
-8.195
-8.16
-8.165
-8.165
-8.175
-8.185
-8.21
-8.235
-8.265
-8.28
-8.29
-8.25
-8.205
-8.205
-8.23
-8.29
-8.335
-8.39
-8.39
-8.37
-8.345
-8.32
-8.27
-8.265
-8.255
-8.285
-8.335
-8.36
-8.36
-8.345
-8.34
-8.345
-8.33
-8.325
-8.285
-8.275
-8.255
-8.25
-8.225
-8.215
-8.19
-8.2
-8.185
-8.18
-8.16
-8.16
-8.13
-8.12
-8.1
-8.08
-8.09
-8.115
-8.135
-8.155
-8.17
-8.15
-8.15
-8.125
-8.125
-8.12
-8.12
-8.105
-8.125
-8.155
-8.155
-8.17
-8.185
-8.175
-8.175
-8.16
-8.155
-8.155
-8.16
-8.15
-8.17
-8.185
-8.17
-8.175
-8.195
-8.175
-8.17
-8.165
-8.15
-8.16
-8.165
-8.17
-8.175
-8.195
-8.175
-8.165
-8.15
-8.165
-8.195
-8.22
-8.215
-8.22
-8.2
-8.175
-8.155
-8.125
-8.155
-8.19
-8.215
-8.2
-8.2
-8.175
-8.15
-8.155
-8.135
-8.155
-8.165
-8.185
-8.165
-8.155
-8.135
-8.12
-8.115
-8.13
-8.15
-8.18
-8.185
-8.18
-8.16
-8.16
-8.13
-8.1
-8.085
-8.06
-8.02
-8.0
-7.98
-7.98
-7.97
-7.965
-7.97
-7.96
-7.975
-7.985
-8.0
-8.02
-8.05
-8.07
-8.065
-8.06
-8.055
-8.055
-8.04
-8.015
-7.985
-7.98
-7.99
-8.015
-8.07
-8.115
-8.14
-8.165
-8.155
-8.16
-8.16
-8.175
-8.175
-8.21
-8.205
-8.185
-8.175
-8.16
-8.175
-8.19
-8.2
-8.21
-8.21
-8.225
-8.215
-8.225
-8.21
-8.19
-8.195
-8.195
-8.21
-8.2
-8.195
-8.19
-8.2
-8.215
-8.235
-8.24
-8.235
-8.22
-8.205
-8.165
-8.095
-8.035
-7.89
-7.745
-7.64
-7.59
-7.585
-7.655
-7.705
-7.645
-7.485
-7.275
-7.08
-6.975
-7.05
-7.33
-7.815
-8.35
-8.8
-9.12
-9.305
-9.4
-9.39
-9.395
-9.38
-9.41
-9.445
-9.47
-9.48
-9.48
-9.465
-9.435
-9.375
-9.32
-9.285
-9.245
-9.19
-9.125
-9.025
-8.875
-8.705
-8.565
-8.445
-8.355
-8.285
-8.215
-8.18
-8.165
-8.145
-8.14
-8.105
-8.095
-8.07
-8.07
-8.065
-8.07
-8.075
-8.065
-8.055
-8.015
-8.01
-8.045
-8.06
-8.085
-8.11
-8.11
-8.125
-8.125
-8.135
-8.115
-8.095
-8.09
-8.08
-8.085
-8.095
-8.11
-8.13
-8.155
-8.185
-8.22
-8.19
-8.16
-8.155
-8.155
-8.16
-8.16
-8.16
-8.155
-8.19
-8.205
-8.23
-8.205
-8.19
-8.165
-8.13
-8.11
-8.085
-8.11
-8.09
-8.1
-8.075
-8.045
-8.035
-7.99
-7.98
-7.95
-7.925
-7.885
-7.84
-7.805
-7.765
-7.74
-7.74
-7.775
-7.835
-7.895
-7.9
-7.905
-7.915
-7.92
-7.905
-7.91
-7.91
-7.915
-7.89
-7.855
-7.875
-7.905
-7.95
-7.975
-8.0
-7.99
-7.975
-7.98
-7.965
-7.935
-7.94
-7.96
-7.99
-8.015
-8.025
-8.02
-7.995
-8.0
-7.975
-7.95
-7.955
-7.97
-8.02
-8.03
-8.045
-8.035
-8.035
-8.035
-8.02
-8.01
-7.985
-7.98
-7.995
-8.035
-8.08
-8.09
-8.085
-8.08
-8.065
-8.04
-8.03
-8.015
-8.0
-8.01
-8.005
-7.995
-7.995
-8.015
-7.985
-7.985
-7.97
-7.995
-8.025
-8.04
-8.02
-7.995
-7.99
-8.01
-8.025
-8.04
-8.02
-8.005
-7.965
-7.895
-7.81
-7.71
-7.63
-7.565
-7.545
-7.565
-7.535
-7.425
-7.285
-7.085
-6.92
-6.835
-6.92
-7.185
-7.585
-8.04
-8.445
-8.745
-8.91
-9.005
-9.05
-9.085
-9.13
-9.165
-9.18
-9.16
-9.17
-9.175
-9.185
-9.145
-9.095
-9.03
-8.965
-8.865
-8.77
-8.62
-8.47
-8.335
-8.18
-8.065
-7.995
-7.94
-7.925
-7.94
-7.955
-7.965
-7.975
-7.96
-7.915
-7.885
-7.865
-7.845
-7.86
-7.87
-7.91
-7.935
-7.955
-7.94
-7.93
-7.915
-7.93
-7.92
-7.925
-7.95
-7.975
-7.98
-7.995
-7.97
-7.975
-7.98
-7.975
-8.005
-8.005
-7.995
-7.985
-8.005
-8.045
-8.08
-8.12
-8.13
-8.135
-8.115
-8.1
-8.08
-8.06
-8.045
-8.03
-8.025
-8.03
-8.06
-8.075
-8.115
-8.095
-8.075
-8.06
-8.075
-8.04
-8.0
-7.965
-7.925
-7.935
-7.94
-7.945
-7.97
-7.99
-7.99
-7.955
-7.93
-7.895
-7.91
-7.9
-7.91
-7.915
-7.9
-7.89
-7.85
-7.85
-7.86
-7.87
-7.895
-7.92
-7.93
-7.925
-7.92
-7.91
-7.89
-7.875
-7.875
-7.86
-7.88
-7.9
-7.925
-7.93
-7.945
-7.935
-7.935
-7.91
-7.895
-7.895
-7.91
-7.91
-7.945
-7.955
-7.935
-7.94
-7.915
-7.89
-7.88
-7.9
-7.925
-7.96
-7.97
-7.98
-7.97
-7.945
-7.925
-7.89
-7.89
-7.905
-7.925
-7.93
-7.955
-7.945
-7.955
-7.955
-7.965
-7.94
-7.93
-7.9
-7.89
-7.9
-7.925
-7.94
-7.96
-7.96
-7.97
-7.965
-7.97
-7.965
-7.94
-7.905
-7.91
-7.915
-7.945
-7.975
-7.98
-7.97
-7.97
-7.97
-7.945
-7.94
-7.935
-7.92
-7.915
-7.915
-7.91
-7.925
-7.945
-7.985
-8.005
-8.005
-8.015
-8.005
-7.97
-7.945
-7.945
-7.93
-7.93
-7.935
-7.95
-7.945
-7.955
-7.97
-7.97
-7.97
-7.945
-7.925
-7.895
-7.86
-7.83
-7.845
-7.855
-7.86
-7.86
-7.855
-7.86
-7.875
-7.865
-7.85
-7.835
-7.83
-7.8
-7.8
-7.805
-7.82
-7.84
-7.875
-7.9
-7.905
-7.905
-7.89
-7.88
-7.86
-7.845
-7.835
-7.82
-7.785
-7.8
-7.855
-7.955
-8.025
-8.06
-8.05
-8.04
-8.005
-8.0
-8.035
-8.06
-8.075
-8.1
-8.125
-8.12
-8.125
-8.095
-8.065
-8.06
-8.06
-8.06
-8.06
-8.075
-8.095
-8.1
-8.125
-8.135
-8.125
-8.115
-8.105
-8.145
-8.155
-8.175
-8.16
-8.17
-8.145
-8.075
-7.97
-7.87
-7.745
-7.66
-7.625
-7.635
-7.64
-7.605
-7.48
-7.29
-7.095
-6.965
-7.015
-7.255
-7.665
-8.14
-8.575
-8.84
-8.975
-9.04
-9.115
-9.2
-9.31
-9.425
-9.48
-9.495
-9.465
-9.425
-9.36
-9.325
-9.275
-9.215
-9.15
-9.05
-8.915
-8.775
-8.6
-8.47
-8.34
-8.25
-8.2
-8.18
-8.18
-8.16
-8.145
-8.12
-8.12
-8.125
-8.125
-8.11
-8.115
-8.12
-8.135
-8.15
-8.15
-8.135
-8.12
-8.115
-8.125
-8.145
-8.15
-8.17
-8.19
-8.185
-8.18
-8.175
-8.165
-8.17
-8.165
-8.17
-8.19
-8.215
-8.205
-8.205
-8.215
-8.215
-8.215
-8.25
-8.28
-8.325
-8.315
-8.31
-8.315
-8.305
-8.275
-8.275
-8.27
-8.26
-8.25
-8.245
-8.225
-8.22
-8.215
-8.225
-8.235
-8.235
-8.24
-8.25
-8.235
-8.215
-8.18
-8.15
-8.105
-8.075
-8.055
-8.045
-8.06
-8.06
-8.07
-8.085
-8.1
-8.085
-8.06
-8.01
-8.01
-8.0
-8.005
-8.015
-8.015
-8.04
-8.055
-8.07
-8.095
-8.07
-8.05
-8.045
-8.04
-8.045
-8.06
-8.04
-8.05
-8.06
-8.065
-8.07
-8.065
-8.055
-8.04
-8.025
-8.035
-8.07
-8.11
-8.15
-8.165
-8.155
-8.145
-8.125
-8.1
-8.095
-8.09
-8.08
-8.09
-8.095
-8.09
-8.13
-8.17
-8.18
-8.18
-8.18
-8.165
-8.155
-8.15
-8.145
-8.135
-8.13
-8.125
-8.1
-8.1
-8.12
-8.14
-8.165
-8.165
-8.13
-8.12
-8.16
-8.175
-8.21
-8.23
-8.225
-8.215
-8.185
-8.17
-8.165
-8.14
-8.135
-8.11
-8.1
-8.09
-8.08
-8.075
-8.065
-8.065
-8.055
-8.06
-8.045
-8.04
-8.015
-7.99
-7.965
-7.97
-7.96
-7.97
-7.99
-7.99
-8.04
-8.065
-8.085
-8.085
-8.09
-8.105
-8.12
-8.09
-8.06
-8.035
-7.995
-8.03
-8.03
-8.06
-8.085
-8.12
-8.14
-8.14
-8.14
-8.15
-8.145
-8.175
-8.23
-8.215
-8.245
-8.23
-8.23
-8.225
-8.195
-8.175
-8.185
-8.195
-8.19
-8.185
-8.175
-8.18
-8.205
-8.235
-8.295
-8.285
-8.285
-8.275
-8.255
-8.235
-8.235
-8.25
-8.25
-8.28
-8.275
-8.225
-8.15
-8.035
-7.91
-7.8
-7.735
-7.72
-7.74
-7.745
-7.67
-7.53
-7.32
-7.1
-6.975
-6.96
-7.1
-7.435
-7.88
-8.375
-8.8
-9.095
-9.225
-9.295
-9.305
-9.345
-9.425
-9.495
-9.57
-9.63
-9.635
-9.6
-9.58
-9.545
-9.525
-9.5
-9.475
-9.43
-9.36
-9.275
-9.14
-8.97
-8.795
-8.625
-8.51
-8.41
-8.35
-8.32
-8.31
-8.285
-8.295
-8.275
-8.285
-8.26
-8.275
-8.265
-8.245
-8.22
-8.22
-8.235
-8.23
-8.25
-8.26
-8.29
-8.28
-8.28
-8.285
-8.27
-8.245
-8.255
-8.285
-8.295
-8.3
-8.305
-8.305
-8.315
-8.345
-8.365
-8.4
-8.415
-8.42
-8.42
-8.415
-8.4
-8.4
-8.395
-8.395
-8.395
-8.405
-8.38
-8.38
-8.365
-8.355
-8.365
-8.375
-8.385
-8.385
-8.38
-8.38
-8.375
-8.35
-8.325
-8.34
-8.3
-8.25
-8.23
-8.215
-8.22
-8.255
-8.295
-8.305
-8.31
-8.265
-8.2
-8.17
-8.15
-8.165
-8.17
-8.17
-8.165
-8.145
-8.145
-8.175
-8.21
-8.22
-8.21
-8.2
-8.175
-8.14
-8.135
-8.115
-8.135
-8.145
-8.185
-8.205
-8.21
-8.21
-8.185
-8.175
-8.165
-8.17
-8.18
-8.165
-8.18
-8.2
-8.215
-8.245
-8.23
-8.23
-8.22
-8.215
-8.215
-8.195
-8.2
-8.205
-8.215
-8.2
-8.235
-8.25
-8.245
-8.245
-8.22
-8.165
-8.135
-8.15
-8.21
-8.25
-8.3
-8.315
-8.29
-8.27
-8.23
-8.215
-8.235
-8.225
-8.225
-8.22
-8.22
-8.21
-8.195
-8.19
-8.175
-8.185
-8.2
-8.22
-8.215
-8.195
-8.175
-8.15
-8.135
-8.135
-8.14
-8.14
-8.16
-8.145
-8.125
-8.12
-8.105
-8.095
-8.09
-8.075
-8.08
-8.09
-8.065
-8.055
-8.06
-8.055
-8.055
-8.065
-8.08
-8.075
-8.105
-8.1
-8.11
-8.12
-8.11
-8.105
-8.105
-8.08
-8.08
-8.06
-8.07
-8.075
-8.09
-8.11
-8.11
-8.135
-8.175
-8.22
-8.27
-8.29
-8.285
-8.295
-8.28
-8.275
-8.265
-8.26
-8.265
-8.24
-8.245
-8.24
-8.235
-8.245
-8.245
-8.235
-8.235
-8.26
-8.275
-8.285
-8.29
-8.29
-8.3
-8.29
-8.285
-8.28
-8.31
-8.345
-8.37
-8.39
-8.305
-8.22
-8.1
-7.985
-7.845
-7.75
-7.7
-7.705
-7.72
-7.68
-7.62
-7.48
-7.305
-7.12
-6.995
-7.035
-7.265
-7.665
-8.125
-8.525
-8.84
-9.04
-9.14
-9.18
-9.235
-9.275
-9.33
-9.39
-9.415
-9.405
-9.425
-9.415
-9.425
-9.365
-9.315
-9.24
-9.165
-9.095
-8.975
-8.83
-8.665
-8.505
-8.4
-8.31
-8.265
-8.235
-8.225
-8.23
-8.21
-8.22
-8.22
-8.205
-8.205
-8.205
-8.185
-8.175
-8.15
-8.15
-8.125
-8.135
-8.175
-8.2
-8.205
-8.21
-8.19
-8.185
-8.16
-8.175
-8.165
-8.175
-8.185
-8.19
-8.2
-8.225
-8.255
-8.25
-8.25
-8.26
-8.245
-8.25
-8.265
-8.28
-8.275
-8.305
-8.295
-8.295
-8.305
-8.28
-8.29
-8.305
-8.305
-8.3
-8.295
-8.275
-8.285
-8.275
-8.26
-8.27
-8.28
-8.255
-8.27
-8.245
-8.23
-8.23
-8.205
-8.16
-8.12
-8.095
-8.06
-8.035
-8.025
-8.03
-8.03
-8.045
-8.085
-8.105
-8.105
-8.11
-8.09
-8.075
-8.035
-8.01
-8.02
-8.035
-8.04
-8.03
-8.055
-8.055
-8.055
-8.05
-8.045
-8.03
-8.035
-8.025
-8.025
-8.035
-8.05
-8.05
-8.05
-8.035
-8.03
-8.03
-8.025
-8.04
-8.05
-8.04
-8.015
-7.985
-7.985
-8.0
-8.035
-8.075
-8.11
-8.125
-8.135
-8.115
-8.095
-8.07
-8.055
-8.04
-8.045
-8.045
-8.07
-8.085
-8.08
-8.1
-8.09
-8.08
-8.085
-8.095
-8.1
-8.09
-8.09
-8.095
-8.095
-8.085
-8.075
-8.06
-8.07
-8.055
-8.065
-8.06
-8.055
-8.055
-8.065
-8.07
-8.09
-8.1
-8.09
-8.055
-8.025
-7.995
-7.965
-7.96
-7.96
-7.965
-7.97
-7.975
-7.975
-7.95
-7.925
-7.93
-7.91
-7.885
-7.87
-7.855
-7.86
-7.85
-7.825
-7.86
-7.915
-7.98
-8.035
-8.045
-8.035
-8.005
-7.97
-7.945
-7.925
-7.905
-7.91
-7.89
-7.91
-7.955
-8.0
-8.045
-8.045
-8.06
-8.055
-8.06
-8.065
-8.065
-8.075
-8.075
-8.065
-8.07
-8.08
-8.1
-8.145
-8.17
-8.17
-8.165
-8.135
-8.125
-8.12
-8.12
-8.105
-8.13
-8.12
-8.115
-8.11
-8.115
-8.105
-8.11
-8.145
-8.18
-8.19
-8.205
-8.14
-8.055
-7.935
-7.815
-7.715
-7.655
-7.625
-7.64
-7.625
-7.49
-7.315
-7.08
-6.89
-6.805
-6.88
-7.175
-7.59
-8.04
-8.43
-8.69
-8.84
-8.925
-8.975
-9.04
-9.11
-9.205
-9.265
-9.315
-9.305
-9.285
-9.235
-9.225
-9.215
-9.19
-9.19
-9.155
-9.09
-8.985
-8.86
-8.685
-8.51
-8.36
-8.245
-8.15
-8.12
-8.12
-8.14
-8.165
-8.165
-8.155
-8.135
-8.095
-8.06
-8.06
-8.045
-8.07
-8.08
-8.105
-8.12
-8.115
-8.125
-8.13
-8.12
-8.12
-8.11
-8.11
-8.115
-8.115
-8.115
-8.13
-8.14
-8.145
-8.165
-8.185
-8.2
-8.225
-8.245
-8.25
-8.25
-8.24
-8.255
-8.275
-8.275
-8.29
-8.285
-8.28
-8.275
-8.27
-8.26
-8.255
-8.27
-8.28
-8.27
-8.255
-8.235
-8.225
-8.205
-8.215
-8.205
-8.175
-8.16
-8.14
-8.125
-8.105
-8.1
-8.065
-8.065
-8.105
-8.11
-8.105
-8.08
-8.075
-8.07
-8.08
-8.065
-8.04
-8.035
-8.03
-8.04
-8.065
-8.085
-8.085
-8.085
-8.07
-8.105
-8.1
-8.085
-8.065
-8.04
-8.05
-8.07
-8.09
-8.1
-8.09
-8.08
-8.075
-8.075
-8.095
-8.095
-8.11
-8.1
-8.11
-8.105
-8.105
-8.125
-8.135
-8.17
-8.18
-8.175
-8.17
-8.15
-8.165
-8.155
-8.165
-8.16
-8.15
-8.16
-8.16
-8.165
-8.17
-8.165
-8.155
-8.145
-8.145
-8.145
-8.15
-8.155
-8.16
-8.175
-8.175
-8.18
-8.185
-8.16
-8.165
-8.16
-8.145
-8.14
-8.125
-8.135
-8.125
-8.12
-8.1
-8.12
-8.075
-8.07
-8.075
-8.065
-8.055
-8.025
-7.99
-8.0
-7.97
-7.98
-8.0
-7.99
-8.005
-8.005
-7.985
-7.99
-8.005
-8.055
-8.08
-8.105
-8.09
-8.085
-8.095
-8.095
-8.075
-8.065
-8.055
-8.07
-8.095
-8.12
-8.17
-8.16
-8.18
-8.205
-8.22
-8.23
-8.235
-8.25
-8.265
-8.265
-8.27
-8.275
-8.275
-8.265
-8.265
-8.275
-8.29
-8.31
-8.295
-8.29
-8.285
-8.265
-8.265
-8.26
-8.27
-8.29
-8.305
-8.31
-8.33
-8.35
-8.375
-8.38
-8.32
-8.255
-8.125
-8.01
-7.855
-7.765
-7.715
-7.735
-7.77
-7.75
-7.68
-7.515
-7.295
-7.09
-6.97
-7.005
-7.23
-7.615
-8.095
-8.56
-8.92
-9.16
-9.25
-9.28
-9.31
-9.36
-9.43
-9.48
-9.52
-9.53
-9.51
-9.49
-9.475
-9.455
-9.4
-9.35
-9.315
-9.25
-9.17
-9.035
-8.87
-8.705
-8.565
-8.455
-8.405
-8.405
-8.42
-8.435
-8.42
-8.38
-8.35
-8.305
-8.27
-8.265
-8.265
-8.265
-8.27
-8.265
-8.27
-8.275
-8.28
-8.275
-8.265
-8.29
-8.315
-8.325
-8.32
-8.325
-8.33
-8.325
-8.34
-8.34
-8.33
-8.34
-8.345
-8.36
-8.375
-8.405
-8.405
-8.405
-8.415
-8.405
-8.39
-8.38
-8.38
-8.4
-8.415
-8.435
-8.445
-8.45
-8.46
-8.46
-8.47
-8.475
-8.45
-8.405
-8.39
-8.355
-8.345
-8.345
-8.355
-8.36
-8.375
-8.365
-8.35
-8.315
-8.28
-8.23
-8.205
-8.2
-8.21
-8.22
-8.225
-8.23
-8.22
-8.2
-8.195
-8.175
-8.175
-8.175
-8.18
-8.18
-8.17
-8.16
-8.155
-8.15
-8.16
-8.15
-8.14
-8.14
-8.14
-8.155
-8.19
-8.195
-8.185
-8.185
-8.185
-8.17
-8.18
-8.175
-8.19
-8.18
-8.18
-8.19
-8.225
-8.225
-8.235
-8.22
-8.225
-8.215
-8.23
-8.205
-8.19
-8.185
-8.18
-8.22
-8.24
-8.245
-8.24
-8.22
-8.22
-8.205
-8.21
-8.2
-8.205
-8.205
-8.215
-8.22
-8.22
-8.21
-8.205
-8.18
-8.175
-8.18
-8.17
-8.185
-8.21
-8.225
-8.23
-8.225
-8.205
-8.165
-8.15
-8.125
-8.115
-8.115
-8.12
-8.15
-8.18
-8.175
-8.145
-8.105
-8.055
-8.04
-8.02
-8.01
-8.005
-8.0
-8.0
-8.01
-8.0
-8.015
-8.03
-8.04
-8.07
-8.085
-8.09
-8.11
-8.11
-8.09
-8.085
-8.055
-8.03
-8.01
-8.015
-8.04
-8.08
-8.115
-8.13
-8.16
-8.145
-8.13
-8.12
-8.135
-8.15
-8.145
-8.165
-8.17
-8.175
-8.18
-8.175
-8.18
-8.185
-8.195
-8.205
-8.205
-8.21
-8.21
-8.205
-8.21
-8.19
-8.16
-8.15
-8.165
-8.15
-8.155
-8.18
-8.195
-8.22
-8.25
-8.245
-8.235
-8.18
-8.055
-7.935
-7.795
-7.67
-7.605
-7.595
-7.635
-7.63
-7.56
-7.415
-7.2
-7.0
-6.875
-6.92
-7.125
-7.495
-7.95
-8.38
-8.685
-8.865
-8.97
-9.035
-9.08
-9.12
-9.16
-9.185
-9.18
-9.17
-9.145
-9.16
-9.155
-9.175
-9.19
-9.16
-9.12
-9.04
-8.91
-8.75
-8.58
-8.405
-8.285
-8.21
-8.155
-8.13
-8.105
-8.08
-8.06
-8.035
-7.995
-7.985
-8.0
-8.02
-8.075
-8.115
-8.125
-8.13
-8.105
-8.105
-8.09
-8.06
-8.055
-8.05
-8.065
-8.075
-8.09
-8.11
-8.12
-8.13
-8.13
-8.13
-8.13
-8.13
-8.135
-8.13
-8.145
-8.16
-8.175
-8.18
-8.185
-8.205
-8.22
-8.23
-8.225
-8.205
-8.205
-8.195
-8.225
-8.21
-8.19
-8.19
-8.2
-8.23
-8.245
-8.24
-8.23
-8.205
-8.205
-8.16
-8.14
-8.125
-8.135
-8.12
-8.125
-8.1
-8.085
-8.05
-8.0
-7.98
-7.945
-7.975
-8.03
-8.075
-8.085
-8.09
-8.05
-8.015
-7.985
-7.965
-7.97
-7.975
-7.97
-7.985
-7.97
-7.955
-7.965
-7.965
-7.96
-7.965
-7.965
-7.975
-7.975
-7.975
-8.01
-8.03
-8.02
-7.99
-7.995
-7.98
-7.975
-7.98
-8.0
-8.0
-8.01
-8.005
-8.005
-8.005
-7.99
-7.985
-7.985
-7.99
-8.0
-8.01
-8.03
-8.02
-8.015
-8.025
-7.995
-7.995
-7.995
-7.99
-8.01
-8.025
-8.04
-8.05
-8.05
-8.025
-8.0
-7.97
-7.95
-7.98
-7.995
-8.025
-8.045
-8.055
-8.05
-8.055
-8.04
-8.005
-7.98
-7.97
-7.945
-7.935
-7.93
-7.92
-7.915
-7.91
-7.875
-7.855
-7.84
-7.845
-7.835
-7.84
-7.85
-7.85
-7.86
-7.865
-7.865
-7.875
-7.88
-7.88
-7.885
-7.91
-7.91
-7.915
-7.915
-7.92
-7.915
-7.91
-7.905
-7.89
-7.92
-7.93
-7.975
-7.97
-8.0
-8.015
-7.99
-7.985
-7.99
-7.99
-8.015
-8.02
-8.08
-8.12
-8.145
-8.15
-8.14
-8.1
-8.075
-8.055
-8.05
-8.04
-8.05
-8.05
-8.06
-8.07
-8.09
-8.085
-8.11
-8.115
-8.11
-8.1
-8.14
-8.15
-8.155
-8.165
-8.175
-8.16
-8.125
-8.06
-7.98
-7.895
-7.805
-7.72
-7.68
-7.685
-7.675
-7.6
-7.465
-7.245
-7.015
-6.805
-6.71
-6.735
-6.955
-7.28
-7.67
-8.04
-8.32
-8.525
-8.615
-8.71
-8.815
-8.91
-9.015
-9.095
-9.14
-9.145
-9.135
-9.115
-9.11
-9.095
-9.07
-9.07
-9.045
-9.03
-8.96
-8.875
-8.755
-8.585
-8.455
-8.335
-8.27
-8.22
-8.195
-8.15
-8.135
-8.12
-8.09
-8.06
-8.06
-8.055
-8.06
-8.055
-8.05
-8.035
-8.03
-8.035
-8.04
-8.045
-8.035
-8.025
-8.04
-8.03
-8.05
-8.08
-8.12
-8.14
-8.145
-8.15
-8.13
-8.125
-8.14
-8.13
-8.15
-8.14
-8.165
-8.175
-8.185
-8.21
-8.205
-8.22
-8.215
-8.22
-8.235
-8.26
-8.265
-8.25
-8.245
-8.24
-8.23
-8.23
-8.24
-8.225
-8.22
-8.215
-8.22
-8.22
-8.22
-8.2
-8.185
-8.165
-8.175
-8.155
-8.165
-8.15
-8.135
-8.115
-8.085
-8.07
-8.04
-7.995
-7.99
-8.01
-8.03
-8.045
-8.03
-7.995
-7.99
-7.97
-7.97
-7.975
-7.98
-7.975
-7.975
-8.0
-8.005
-8.025
-8.035
-8.025
-8.02
-8.005
-7.995
-7.99
-7.985
-8.0
-8.005
-7.995
-7.995
-8.005
-8.0
-8.0
-7.995
-8.005
-8.0
-7.995
-7.975
-7.975
-7.995
-8.025
-8.065
-8.09
-8.105
-8.11
-8.08
-8.055
-8.035
-8.02
-8.02
-8.03
-8.02
-8.04
-8.06
-8.065
-8.075
-8.07
-8.07
-8.055
-8.04
-8.03
-8.025
-8.025
-8.01
-8.045
-8.05
-8.065
-8.06
-8.085
-8.08
-8.065
-8.035
-8.015
-8.0
-7.99
-7.995
-8.0
-8.005
-7.995
-7.99
-7.99
-7.955
-7.925
-7.91
-7.89
-7.85
-7.835
-7.835
-7.84
-7.845
-7.855
-7.865
-7.865
-7.885
-7.905
-7.92
-7.945
-7.945
-7.955
-7.96
-7.955
-7.95
-7.93
-7.935
-7.935
-7.965
-7.99
-8.015
-8.015
-8.01
-8.03
-8.03
-8.03
-8.04
-8.06
-8.09
-8.105
-8.145
-8.14
-8.135
-8.12
-8.11
-8.095
-8.08
-8.075
-8.075
-8.085
-8.1
-8.12
-8.155
-8.16
-8.15
-8.135
-8.105
-8.085
-8.085
-8.13
-8.125
-8.175
-8.22
-8.265
-8.28
-8.23
-8.135
-8.03
-7.895
-7.8
-7.72
-7.71
-7.72
-7.705
-7.615
-7.44
-7.2
-6.93
-6.73
-6.675
-6.82
-7.16
-7.63
-8.095
-8.465
-8.725
-8.845
-8.925
-9.015
-9.1
-9.145
-9.165
-9.135
-9.13
-9.125
-9.14
-9.135
-9.145
-9.1
-9.05
-8.965
-8.875
-8.78
-8.665
-8.555
-8.44
-8.35
-8.29
-8.225
-8.18
-8.15
-8.14
-8.125
-8.13
-8.1
-8.085
-8.075
-8.065
-8.075
-8.07
-8.095
-8.12
-8.12
-8.115
-8.125
-8.1
-8.09
-8.08
-8.07
-8.065
-8.085
-8.1
-8.145
-8.155
-8.15
-8.18
-8.195
-8.19
-8.18
-8.195
-8.22
-8.23
-8.26
-8.29
-8.305
-8.325
-8.32
-8.305
-8.305
-8.295
-8.285
-8.27
-8.265
-8.245
-8.235
-8.22
-8.23
-8.24
-8.26
-8.25
-8.255
-8.21
-8.195
-8.175
-8.155
-8.14
-8.14
-8.11
-8.09
-8.065
-8.065
-8.05
-8.045
-8.035
-8.03
-8.025
-8.03
-8.015
-8.0
-7.98
-7.98
-7.985
-7.995
-8.005
-8.01
-7.995
-7.99
-7.985
-7.985
-8.0
-8.005
-7.995
-8.0
-8.005
-8.02
-8.01
-8.01
-8.015
-8.03
-8.02
-8.04
-8.005
-8.01
-8.015
-8.015
-8.03
-8.045
-8.03
-8.045
-8.03
-7.99
-7.975
-7.97
-7.99
-8.05
-8.1
-8.125
-8.135
-8.12
-8.105
-8.09
-8.085
-8.08
-8.07
-8.075
-8.06
-8.035
-8.035
-8.045
-8.05
-8.055
-8.055
-8.055
-8.055
-8.07
-8.065
-8.055
-8.04
-8.03
-8.025
-8.025
-8.03
-8.025
-8.03
-8.03
-8.03
-8.01
-8.005
-7.99
-7.955
-7.935
-7.915
-7.915
-7.92
-7.945
-7.95
-7.945
-7.91
-7.87
-7.835
-7.83
-7.82
-7.87
-7.895
-7.92
-7.95
-7.965
-8.0
-8.0
-8.005
-7.985
-7.965
-7.93
-7.905
-7.88
-7.875
-7.87
-7.885
-7.905
-7.95
-8.0
-8.05
-8.08
-8.08
-8.1
-8.07
-8.07
-8.075
-8.1
-8.14
-8.165
-8.17
-8.19
-8.155
-8.135
-8.085
-8.045
-8.03
-8.07
-8.13
-8.18
-8.215
-8.215
-8.195
-8.165
-8.145
-8.135
-8.15
-8.155
-8.16
-8.175
-8.19
-8.185
-8.16
-8.075
-7.965
-7.84
-7.715
-7.635
-7.615
-7.61
-7.575
-7.48
-7.315
-7.075
-6.855
-6.71
-6.695
-6.845
-7.175
-7.59
-8.035
-8.415
-8.69
-8.865
-8.925
-8.97
-9.015
-9.095
-9.21
-9.295
-9.35
-9.36
-9.325
-9.28
-9.26
-9.285
-9.28
-9.275
-9.26
-9.2
-9.125
-9.015
-8.85
-8.655
-8.495
-8.415
-8.325
-8.295
-8.3
-8.295
-8.29
-8.285
-8.25
-8.23
-8.195
-8.18
-8.16
-8.16
-8.15
-8.155
-8.16
-8.16
-8.17
-8.19
-8.185
-8.185
-8.18
-8.18
-8.17
-8.19
-8.215
-8.21
-8.245
-8.27
-8.305
-8.325
-8.335
-8.36
-8.355
-8.345
-8.335
-8.33
-8.33
-8.34
-8.37
-8.375
-8.395
-8.41
-8.41
-8.425
-8.415
-8.4
-8.39
-8.38
-8.37
-8.36
-8.37
-8.365
-8.375
-8.355
-8.335
-8.33
-8.305
-8.3
-8.315
-8.32
-8.305
-8.28
-8.265
-8.23
-8.22
-8.205
-8.18
-8.185
-8.17
-8.17
-8.165
-8.175
-8.14
-8.17
-8.13
-8.15
-8.15
-8.175
-8.185
-8.19
-8.165
-8.14
-8.13
-8.115
-8.09
-8.1
-8.125
-8.165
-8.225
-8.24
-8.245
-8.215
-8.205
-8.185
-8.165
-8.17
-8.17
-8.19
-8.205
-8.225
-8.225
-8.225
-8.235
-8.235
-8.235
-8.23
-8.225
-8.22
-8.23
-8.25
-8.27
-8.255
-8.275
-8.285
-8.285
-8.315
-8.315
-8.305
-8.29
-8.28
-8.275
-8.26
-8.26
-8.27
-8.27
-8.285
-8.295
-8.295
-8.31
-8.295
-8.28
-8.26
-8.265
-8.265
-8.29
-8.3
-8.3
-8.325
-8.295
-8.3
-8.27
-8.245
-8.22
-8.19
-8.17
-8.175
-8.185
-8.18
-8.19
-8.16
-8.155
-8.125
-8.11
-8.1
-8.085
-8.09
-8.065
-8.085
-8.1
-8.12
-8.15
-8.195
-8.215
-8.245
-8.25
-8.23
-8.205
-8.175
-8.15
-8.13
-8.125
-8.135
-8.165
-8.215
-8.245
-8.285
-8.305
-8.325
-8.325
-8.34
-8.335
-8.35
-8.36
-8.38
-8.395
-8.415
-8.415
-8.42
-8.435
-8.425
-8.415
-8.415
-8.395
-8.405
-8.41
-8.42
-8.425
-8.435
-8.41
-8.425
-8.42
-8.42
-8.44
-8.465
-8.485
-8.485
-8.47
-8.435
-8.37
-8.28
-8.155
-8.015
-7.905
-7.84
-7.83
-7.825
-7.795
-7.71
-7.525
-7.305
-7.07
-6.985
-7.04
-7.335
-7.805
-8.32
-8.775
-9.1
-9.235
-9.315
-9.335
-9.355
-9.425
-9.48
-9.55
-9.59
-9.625
-9.625
-9.63
-9.575
-9.535
-9.455
-9.405
-9.34
-9.23
-9.09
-8.95
-8.805
-8.675
-8.585
-8.54
-8.53
-8.51
-8.515
-8.5
-8.485
-8.485
-8.48
-8.49
-8.48
-8.465
-8.46
-8.445
-8.44
-8.415
-8.43
-8.46
-8.465
-8.495
-8.5
-8.515
-8.505
-8.475
-8.47
-8.47
-8.48
-8.485
-8.515
-8.525
-8.54
-8.555
-8.56
-8.57
-8.595
-8.595
-8.595
-8.63
-8.61
-8.59
-8.595
-8.6
-8.585
-8.605
-8.625
-8.62
-8.63
-8.61
-8.605
-8.61
-8.61
-8.595
-8.595
-8.595
-8.575
-8.56
-8.535
-8.53
-8.52
-8.5
-8.475
-8.465
-8.455
-8.425
-8.405
-8.39
-8.385
-8.39
-8.395
-8.415
-8.405
-8.41
-8.39
-8.375
-8.365
-8.365
-8.365
-8.365
-8.365
-8.37
-8.355
-8.36
-8.355
-8.355
-8.35
-8.355
-8.365
-8.36
-8.39
-8.4
-8.41
-8.41
-8.43
-8.44
-8.455
-8.43
-8.435
-8.425
-8.42
-8.415
-8.41
-8.4
-8.415
-8.41
-8.415
-8.42
-8.425
-8.435
-8.425
-8.425
-8.425
-8.425
-8.415
-8.405
-8.42
-8.42
-8.425
-8.425
-8.415
-8.41
-8.425
-8.415
-8.4
-8.385
-8.395
-8.39
-8.39
-8.395
-8.39
-8.39
-8.42
-8.42
-8.415
-8.4
-8.395
-8.37
-8.34
-8.34
-8.335
-8.325
-8.315
-8.31
-8.315
-8.3
-8.27
-8.235
-8.22
-8.18
-8.16
-8.165
-8.17
-8.175
-8.205
-8.21
-8.23
-8.22
-8.225
-8.24
-8.26
-8.25
-8.26
-8.265
-8.255
-8.25
-8.245
-8.2
-8.195
-8.2
-8.23
-8.27
-8.32
-8.32
-8.36
-8.345
-8.35
-8.35
-8.345
-8.38
-8.41
-8.425
-8.455
-8.44
-8.425
-8.39
-8.405
-8.395
-8.4
-8.405
-8.415
-8.425
-8.415
-8.435
-8.43
-8.42
-8.41
-8.4
-8.385
-8.385
-8.405
-8.41
-8.435
-8.45
-8.465
-8.465
-8.46
-8.465
-8.41
-8.325
-8.195
-8.04
-7.88
-7.785
-7.78
-7.8
-7.8
-7.74
-7.58
-7.335
-7.1
-6.91
-6.855
-6.985
-7.3
-7.775
-8.275
-8.705
-9.01
-9.165
-9.23
-9.25
-9.265
-9.31
-9.37
-9.445
-9.46
-9.46
-9.455
-9.405
-9.395
-9.39
-9.37
-9.345
-9.28
-9.195
-9.085
-8.945
-8.795
-8.67
-8.58
-8.51
-8.46
-8.435
-8.41
-8.39
-8.37
-8.325
-8.31
-8.3
-8.31
-8.325
-8.33
-8.335
-8.315
-8.3
-8.295
-8.29
-8.295
-8.29
-8.32
-8.33
-8.34
-8.345
-8.36
-8.365
-8.37
-8.37
-8.36
-8.365
-8.35
-8.365
-8.38
-8.39
-8.41
-8.435
-8.475
-8.465
-8.475
-8.46
-8.455
-8.44
-8.435
-8.435
-8.455
-8.47
-8.46
-8.47
-8.475
-8.47
-8.47
-8.455
-8.465
-8.46
-8.475
-8.44
-8.405
-8.385
-8.365
-8.345
-8.32
-8.32
-8.33
-8.325
-8.3
-8.275
-8.24
-8.205
-8.175
-8.165
-8.165
-8.165
-8.165
-8.17
-8.155
-8.15
-8.14
-8.12
-8.13
-8.115
-8.13
-8.12
-8.115
-8.12
-8.12
-8.145
-8.155
-8.18
-8.175
-8.145
-8.135
-8.11
-8.115
-8.12
-8.155
-8.17
-8.17
-8.185
-8.18
-8.165
-8.155
-8.14
-8.14
-8.13
-8.135
-8.13
-8.14
-8.145
-8.13
-8.14
-8.14
-8.145
-8.15
-8.16
-8.16
-8.185
-8.19
-8.175
-8.155
-8.175
-8.165
-8.18
-8.18
-8.185
-8.18
-8.18
-8.17
-8.15
-8.14
-8.14
-8.13
-8.13
-8.14
-8.15
-8.14
-8.135
-8.14
-8.12
-8.095
-8.055
-8.02
-8.02
-8.015
-8.01
-7.995
-7.975
-7.97
-7.955
-7.94
-7.95
-7.94
-7.91
-7.91
-7.895
-7.895
-7.905
-7.92
-7.94
-7.97
-8.0
-8.025
-8.025
-8.015
-7.995
-7.97
-7.94
-7.925
-7.92
-7.925
-7.94
-7.985
-8.015
-8.045
-8.085
-8.11
-8.11
-8.11
-8.12
-8.11
-8.115
-8.125
-8.12
-8.115
-8.125
-8.135
-8.15
-8.155
-8.155
-8.16
-8.145
-8.145
-8.145
-8.15
-8.15
-8.16
-8.15
-8.145
-8.145
-8.13
-8.125
-8.135
-8.175
-8.225
-8.25
-8.235
-8.185
-8.065
-7.935
-7.765
-7.625
-7.545
-7.515
-7.525
-7.515
-7.44
-7.27
-7.045
-6.78
-6.61
-6.55
-6.68
-7.015
-7.48
-7.96
-8.38
-8.66
-8.82
-8.89
-8.945
-9.02
-9.09
-9.15
-9.215
-9.195
-9.19
-9.18
-9.16
-9.15
-9.135
-9.11
-9.065
-9.02
-8.91
-8.79
-8.635
-8.47
-8.355
-8.255
-8.19
-8.135
-8.105
-8.095
-8.1
-8.1
-8.09
-8.085
-8.07
-8.075
-8.065
-8.06
-8.075
-8.05
-8.055
-8.055
-8.08
-8.08
-8.09
-8.1
-8.09
-8.085
-8.105
-8.09
-8.09
-8.105
-8.13
-8.155
-8.175
-8.195
-8.2
-8.195
-8.19
-8.16
-8.14
-8.125
-8.115
-8.12
-8.17
-8.225
-8.265
-8.31
-8.31
-8.295
-8.265
-8.23
-8.205
-8.19
-8.18
-8.175
-8.175
-8.17
-8.185
-8.175
-8.18
-8.16
-8.14
-8.105
-8.075
-8.035
-7.995
-7.99
-7.99
-7.995
-8.0
-8.01
-8.015
-8.01
-7.985
-7.97
-7.94
-7.91
-7.895
-7.915
-7.93
-7.95
-7.95
-7.95
-7.955
-7.96
-7.935
-7.93
-7.9
-7.89
-7.895
-7.895
-7.89
-7.895
-7.91
-7.92
-7.975
-7.98
-7.96
-7.95
-7.945
-7.935
-7.94
-7.93
-7.93
-7.925
-7.93
-7.935
-7.935
-7.94
-7.96
-7.955
-7.94
-7.925
-7.935
-7.94
-7.96
-7.99
-7.98
-7.975
-7.975
-7.965
-7.975
-7.97
-7.965
-7.955
-7.945
-7.94
-7.925
-7.94
-7.96
-7.96
-7.965
-7.955
-7.96
-7.94
-7.92
-7.905
-7.895
-7.89
-7.885
-7.885
-7.87
-7.85
-7.835
-7.81
-7.82
-7.82
-7.825
-7.82
-7.79
-7.775
-7.77
-7.78
-7.755
-7.73
-7.735
-7.725
-7.725
-7.71
-7.7
-7.69
-7.7
-7.725
-7.765
-7.8
-7.835
-7.85
-7.835
-7.82
-7.79
-7.745
-7.735
-7.725
-7.76
-7.795
-7.825
-7.86
-7.88
-7.89
-7.91
-7.92
-7.91
-7.935
-7.94
-7.95
-7.96
-7.98
-7.995
-7.995
-7.98
-8.005
-8.01
-8.03
-8.025
-8.02
-8.01
-7.99
-7.965
-7.96
-7.96
-7.985
-8.0
-8.025
-8.035
-8.06
-8.05
-8.055
-8.065
-8.055
-8.025
-7.965
-7.855
-7.69
-7.535
-7.42
-7.355
-7.35
-7.37
-7.355
-7.26
-7.065
-6.815
-6.575
-6.43
-6.475
-6.73
-7.17
-7.675
-8.145
-8.5
-8.695
-8.79
-8.835
-8.88
-8.94
-9.005
-9.09
-9.15
-9.17
-9.165
-9.15
-9.12
-9.09
-9.06
-9.035
-8.99
-8.935
-8.895
-8.81
-8.695
-8.56
-8.43
-8.305
-8.185
-8.115
-8.045
-8.01
-8.005
-7.99
-7.985
-7.975
-7.97
-7.975
-7.975
-7.95
-7.955
-7.965
-7.97
-7.955
-7.94
-7.945
-7.945
-7.955
-7.98
-7.995
-7.995
-7.985
-7.985
-7.97
-7.97
-7.985
-7.99
-8.005
-8.02
-8.05
-8.06
-8.095
-8.095
-8.09
-8.085
-8.1
-8.1
-8.095
-8.095
-8.115
-8.135
-8.145
-8.16
-8.185
-8.18
-8.175
-8.16
-8.155
-8.135
-8.13
-8.105
-8.09
-8.105
-8.095
-8.085
-8.065
-8.05
-8.04
-8.025
-8.015
-8.0
-7.99
-7.965
-7.955
-7.935
-7.925
-7.905
-7.89
-7.895
-7.87
-7.865
-7.85
-7.845
-7.86
-7.87
-7.88
-7.9
-7.91
-7.915
-7.915
-7.9
-7.885
-7.87
-7.87
-7.87
-7.87
-7.885
-7.88
-7.9
-7.89
-7.895
-7.905
-7.915
-7.905
-7.905
-7.92
-7.925
-7.905
-7.9
-7.9
-7.91
-7.925
-7.94
-7.945
-7.955
-7.965
-7.955
-7.96
-7.945
-7.94
-7.94
-7.925
-7.925
-7.96
-7.97
-7.975
-7.97
-7.965
-7.98
-7.94
-7.935
-7.935
-7.93
-7.94
-7.935
-7.94
-7.925
-7.93
-7.945
-7.965
-7.99
-7.985
-7.975
-7.965
-7.95
-7.94
-7.92
-7.915
-7.895
-7.89
-7.88
-7.865
-7.845
-7.835
-7.815
-7.775
-7.755
-7.74
-7.745
-7.755
-7.74
-7.73
-7.735
-7.735
-7.76
-7.745
-7.755
-7.78
-7.785
-7.79
-7.795
-7.82
-7.82
-7.84
-7.825
-7.795
-7.78
-7.745
-7.745
-7.77
-7.785
-7.825
-7.855
-7.885
-7.885
-7.905
-7.915
-7.905
-7.92
-7.93
-7.945
-7.955
-7.97
-7.97
-7.985
-7.975
-7.985
-7.98
-8.015
-7.995
-7.98
-7.95
-7.96
-7.95
-7.94
-7.945
-7.925
-7.93
-7.965
-8.005
-8.02
-8.055
-8.07
-8.075
-8.065
-8.055
-8.005
-7.915
-7.805
-7.665
-7.505
-7.365
-7.315
-7.305
-7.34
-7.31
-7.205
-7.035
-6.79
-6.56
-6.405
-6.42
-6.58
-6.91
-7.385
-7.885
-8.29
-8.57
-8.71
-8.78
-8.84
-8.915
-8.995
-9.07
-9.105
-9.12
-9.09
-9.06
-9.045
-9.01
-8.975
-8.92
-8.895
-8.865
-8.765
-8.65
-8.51
-8.37
-8.245
-8.125
-8.035
-7.98
-7.95
-7.93
-7.915
-7.9
-7.88
-7.885
-7.885
-7.895
-7.905
-7.905
-7.88
-7.865
-7.845
-7.83
-7.83
-7.85
-7.875
-7.885
-7.9
-7.9
-7.89
-7.88
-7.885
-7.875
-7.905
-7.935
-7.95
-7.98
-7.985
-7.98
-7.98
-7.995
-8.01
-8.01
-8.02
-8.01
-8.005
-7.995
-8.0
-8.015
-8.04
-8.06
-8.075
-8.075
-8.08
-8.075
-8.06
-8.045
-8.015
-8.01
-7.995
-7.975
-7.985
-7.98
-7.965
-7.955
-7.95
-7.925
-7.895
-7.875
-7.85
-7.815
-7.795
-7.785
-7.765
-7.77
-7.785
-7.79
-7.805
-7.795
-7.785
-7.76
-7.735
-7.715
-7.69
-7.675
-7.68
-7.68
-7.71
-7.74
-7.745
-7.755
-7.725
-7.705
-7.7
-7.685
-7.695
-7.705
-7.705
-7.725
-7.72
-7.73
-7.72
-7.705
-7.715
-7.715
-7.735
-7.745
-7.73
-7.73
-7.705
-7.705
-7.72
-7.735
-7.73
-7.73
-7.73
-7.705
-7.72
-7.72
-7.725
-7.725
-7.745
-7.76
-7.745
-7.745
-7.75
-7.745
-7.745
-7.735
-7.725
-7.725
-7.685
-7.7
-7.67
-7.68
-7.695
-7.715
-7.73
-7.725
-7.725
-7.695
-7.69
-7.67
-7.665
-7.655
-7.63
-7.61
-7.605
-7.585
-7.59
-7.58
-7.575
-7.535
-7.51
-7.48
-7.46
-7.45
-7.45
-7.47
-7.465
-7.485
-7.48
-7.49
-7.505
-7.525
-7.535
-7.55
-7.555
-7.55
-7.54
-7.54
-7.535
-7.525
-7.5
-7.495
-7.515
-7.555
-7.6
-7.635
-7.635
-7.645
-7.635
-7.635
-7.625
-7.625
-7.66
-7.695
-7.7
-7.715
-7.72
-7.71
-7.72
-7.74
-7.73
-7.74
-7.74
-7.74
-7.735
-7.745
-7.735
-7.715
-7.71
-7.685
-7.7
-7.7
-7.7
-7.725
-7.755
-7.8
-7.81
-7.83
-7.765
-7.685
-7.565
-7.41
-7.28
-7.17
-7.135
-7.14
-7.16
-7.1
-6.965
-6.73
-6.445
-6.205
-6.1
-6.16
-6.42
-6.845
-7.32
-7.76
-8.1
-8.3
-8.375
-8.415
-8.465
-8.525
-8.59
-8.67
-8.72
-8.745
-8.745
-8.73
-8.7
-8.71
-8.685
-8.67
-8.635
-8.57
-8.47
-8.315
-8.155
-8.005
-7.88
-7.79
-7.725
-7.705
-7.72
-7.715
-7.71
-7.7
-7.675
-7.645
-7.605
-7.585
-7.575
-7.585
-7.605
-7.625
-7.635
-7.635
-7.63
-7.62
-7.625
-7.63
-7.65
-7.665
-7.66
-7.68
-7.685
-7.695
-7.71
-7.705
-7.71
-7.715
-7.71
-7.7
-7.705
-7.72
-7.735
-7.765
-7.78
-7.795
-7.785
-7.79
-7.785
-7.755
-7.745
-7.745
-7.74
-7.76
-7.77
-7.785
-7.835
-7.83
-7.825
-7.815
-7.8
-7.765
-7.74
-7.725
-7.72
-7.73
-7.72
-7.735
-7.725
-7.7
-7.695
-7.685
-7.67
-7.64
-7.615
-7.58
-7.545
-7.53
-7.515
-7.505
-7.51
-7.51
-7.515
-7.52
-7.525
-7.515
-7.515
-7.5
-7.49
-7.485
-7.485
-7.495
-7.505
-7.515
-7.515
-7.52
-7.51
-7.49
-7.475
-7.465
-7.46
-7.46
-7.47
-7.5
-7.505
-7.52
-7.515
-7.525
-7.5
-7.5
-7.495
-7.495
-7.48
-7.495
-7.475
-7.485
-7.5
-7.51
-7.525
-7.54
-7.54
-7.545
-7.545
-7.52
-7.52
-7.535
-7.525
-7.515
-7.525
-7.55
-7.52
-7.53
-7.51
-7.51
-7.495
-7.49
-7.495
-7.51
-7.54
-7.575
-7.555
-7.535
-7.52
-7.5
-7.49
-7.47
-7.46
-7.435
-7.42
-7.395
-7.39
-7.36
-7.34
-7.33
-7.335
-7.305
-7.29
-7.29
-7.285
-7.27
-7.28
-7.295
-7.29
-7.315
-7.35
-7.395
-7.435
-7.435
-7.435
-7.425
-7.38
-7.35
-7.325
-7.295
-7.31
-7.31
-7.345
-7.39
-7.44
-7.47
-7.485
-7.5
-7.51
-7.495
-7.49
-7.515
-7.53
-7.55
-7.565
-7.585
-7.59
-7.585
-7.575
-7.56
-7.555
-7.56
-7.56
-7.575
-7.585
-7.59
-7.595
-7.605
-7.595
-7.6
-7.6
-7.585
-7.585
-7.595
-7.615
-7.64
-7.695
-7.71
-7.69
-7.6
-7.475
-7.34
-7.2
-7.115
-7.085
-7.035
-6.93
-6.755
-6.485
-6.21
-6.025
-6.0
-6.165
-6.53
-6.995
-7.46
-7.83
-8.065
-8.175
-8.24
-8.31
-8.395
-8.49
-8.595
-8.635
-8.66
-8.635
-8.62
-8.59
-8.575
-8.535
-8.52
-8.505
-8.505
-8.455
-8.33
-8.195
-8.045
-7.895
-7.775
-7.675
-7.625
-7.6
-7.585
-7.585
-7.58
-7.58
-7.57
-7.575
-7.575
-7.565
-7.54
-7.53
-7.51
-7.51
-7.505
-7.545
-7.575
-7.575
-7.58
-7.59
-7.575
-7.575
-7.575
-7.58
-7.585
-7.565
-7.595
-7.595
-7.595
-7.625
-7.65
-7.685
-7.71
-7.72
-7.715
-7.7
-7.695
-7.69
-7.69
-7.705
-7.71
-7.725
-7.75
-7.77
-7.78
-7.765
-7.755
-7.74
-7.705
-7.69
-7.685
-7.69
-7.7
-7.71
-7.71
-7.685
-7.665
-7.645
-7.605
-7.595
-7.56
-7.535
-7.545
-7.535
-7.515
-7.505
-7.49
-7.485
-7.47
-7.465
-7.45
-7.445
-7.425
-7.415
-7.445
-7.44
-7.46
-7.45
-7.455
-7.445
-7.445
-7.455
-7.445
-7.455
-7.455
-7.445
-7.43
-7.43
-7.44
-7.44
-7.455
-7.495
-7.5
-7.48
-7.48
-7.47
-7.46
-7.45
-7.455
-7.45
-7.47
-7.465
-7.47
-7.475
-7.465
-7.47
-7.495
-7.495
-7.48
-7.475
-7.5
-7.53
-7.505
-7.51
-7.51
-7.51
-7.495
-7.5
-7.485
-7.495
-7.48
-7.485
-7.49
-7.485
-7.505
-7.5
-7.51
-7.515
-7.49
-7.48
-7.465
-7.465
-7.455
-7.45
-7.45
-7.42
-7.43
-7.41
-7.39
-7.395
-7.38
-7.365
-7.36
-7.34
-7.31
-7.285
-7.26
-7.25
-7.245
-7.25
-7.265
-7.28
-7.28
-7.27
-7.255
-7.245
-7.225
-7.275
-7.32
-7.37
-7.41
-7.42
-7.405
-7.385
-7.355
-7.33
-7.315
-7.3
-7.305
-7.31
-7.36
-7.4
-7.44
-7.46
-7.475
-7.475
-7.475
-7.505
-7.505
-7.52
-7.525
-7.515
-7.515
-7.52
-7.52
-7.52
-7.545
-7.555
-7.55
-7.55
-7.54
-7.545
-7.525
-7.535
-7.52
-7.505
-7.5
-7.515
-7.54
-7.55
-7.57
-7.595
-7.635
-7.635
-7.63
-7.56
-7.47
-7.33
-7.2
-7.09
-7.02
-6.98
-6.99
-6.97
-6.875
-6.72
-6.475
-6.225
-6.02
-5.915
-6.005
-6.26
-6.685
-7.19
-7.63
-7.96
-8.185
-8.265
-8.325
-8.405
-8.5
-8.58
-8.645
-8.69
-8.71
-8.71
-8.695
-8.665
-8.64
-8.605
-8.56
-8.49
-8.42
-8.31
-8.205
-8.055
-7.915
-7.79
-7.685
-7.61
-7.56
-7.53
-7.525
-7.525
-7.505
-7.495
-7.5
-7.5
-7.51
-7.49
-7.49
-7.495
-7.49
-7.495
-7.5
-7.5
-7.49
-7.475
-7.495
-7.495
-7.525
-7.55
-7.575
-7.575
-7.585
-7.57
-7.57
-7.575
-7.57
-7.595
-7.615
-7.615
-7.63
-7.655
-7.665
-7.65
-7.665
-7.69
-7.68
-7.675
-7.69
-7.68
-7.7
-7.71
-7.725
-7.745
-7.73
-7.715
-7.69
-7.675
-7.675
-7.635
-7.61
-7.605
-7.58
-7.565
-7.535
-7.495
-7.46
-7.4
-7.37
-7.355
-7.33
-7.32
-7.305
-7.29
-7.265
-7.24
-7.21
-7.18
-7.15
-7.135
-7.14
-7.155
-7.2
-7.255
-7.33
-7.38
-7.405
-7.41
-7.42
-7.395
-7.415
-7.39
-7.375
-7.39
-7.4
-7.42
-7.45
-7.48
-7.525
-7.545
-7.575
-7.585
-7.595
-7.58
-7.59
-7.575
-7.56
-7.575
-7.57
-7.58
-7.6
-7.58
-7.605
-7.62
-7.63
-7.62
-7.625
-7.61
-7.6
-7.59
-7.6
-7.615
-7.625
-7.62
-7.64
-7.635
-7.645
-7.63
-7.635
-7.61
-7.61
-7.595
-7.61
-7.615
-7.62
-7.625
-7.615
-7.615
-7.615
-7.635
-7.655
-7.655
-7.65
-7.645
-7.575
-7.48
-7.36
-7.235
-7.14
-7.09
-7.065
-7.075
-7.02
-6.905
-6.69
-6.405
-6.15
-5.97
-5.935
-6.115
-6.485
-6.97
-7.49
-7.93
-8.255
-8.405
-8.48
-8.51
-8.565
-8.6
-8.68
-8.745
-8.77
-8.8
-8.785
-8.79
-8.755
-8.74
-8.69
-8.64
-8.585
-8.5
-8.395
-8.245
-8.105
-7.955
-7.85
-7.75
-7.665
-7.62
-7.605
-7.575
-7.58
-7.565
-7.57
-7.56
-7.57
-7.56
-7.55
-7.55
-7.535
-7.54
-7.515
-7.525
-7.535
-7.55
-7.56
-7.585
-7.595
-7.61
-7.615
-7.615
-7.61
-7.63
-7.64
-7.65
-7.675
-7.695
-7.695
-7.705
-7.72
-7.72
-7.75
-7.77
-7.775
-7.775
-7.755
-7.775
-7.765
-7.785
-7.79
-7.8
-7.82
-7.82
-7.83
-7.82
-7.8
-7.79
-7.775
-7.74
-7.725
-7.695
-7.68
-7.68
-7.67
-7.655
-7.665
-7.645
-7.61
-7.59
-7.57
-7.555
-7.545
-7.555
-7.56
-7.56
-7.58
-7.57
-7.58
-7.575
-7.55
-7.555
-7.53
-7.525
-7.535
-7.55
-7.57
-7.595
-7.605
-7.605
-7.605
-7.595
-7.585
-7.59
-7.57
-7.565
-7.565
-7.57
-7.585
-7.595
-7.595
-7.6
-7.605
-7.605
-7.59
-7.585
-7.595
-7.585
-7.575
-7.57
-7.59
-7.615
-7.6
-7.6
-7.595
-7.605
-7.59
-7.585
-7.58
-7.575
-7.565
-7.56
-7.565
-7.59
-7.595
-7.605
-7.595
-7.605
-7.58
-7.57
-7.555
-7.575
-7.56
-7.565
-7.595
-7.565
-7.57
-7.58
-7.58
-7.57
-7.56
-7.56
-7.55
-7.55
-7.575
-7.565
-7.57
-7.57
-7.585
-7.59
-7.575
-7.58
-7.56
-7.555
-7.545
-7.55
-7.545
-7.545
-7.565
-7.57
-7.58
-7.59
-7.585
-7.575
-7.56
-7.55
-7.545
-7.55
-7.545
-7.55
-7.565
-7.565
-7.57
-7.57
-7.565
-7.545
-7.535
-7.515
-7.48
-7.47
-7.465
-7.45
-7.45
-7.43
-7.42
-7.405
-7.385
-7.375
-7.345
-7.325
-7.32
-7.31
-7.33
-7.32
-7.33
-7.355
-7.4
-7.44
-7.455
-7.475
-7.465
-7.435
-7.41
-7.38
-7.365
-7.38
-7.385
-7.39
-7.415
-7.46
-7.485
-7.51
-7.515
-7.51
-7.51
-7.51
-7.53
-7.555
-7.585
-7.615
-7.625
-7.63
-7.645
-7.625
-7.61
-7.605
-7.595
-7.585
-7.595
-7.595
-7.6
-7.61
-7.62
-7.62
-7.625
-7.635
-7.64
-7.66
-7.685
-7.7
-7.735
-7.73
-7.695
-7.62
-7.51
-7.355
-7.215
-7.095
-7.035
-7.04
-7.03
-6.98
-6.875
-6.675
-6.42
-6.205
-6.085
-6.12
-6.3
-6.635
-7.075
-7.51
-7.865
-8.12
-8.28
-8.365
-8.43
-8.485
-8.585
-8.66
-8.735
-8.77
-8.75
-8.72
-8.7
-8.69
-8.67
-8.65
-8.635
-8.625
-8.575
-8.5
-8.395
-8.245
-8.095
-7.94
-7.795
-7.715
-7.66
-7.64
-7.655
-7.665
-7.67
-7.655
-7.635
-7.625
-7.59
-7.57
-7.545
-7.53
-7.535
-7.54
-7.555
-7.58
-7.595
-7.605
-7.62
-7.615
-7.61
-7.615
-7.605
-7.59
-7.605
-7.62
-7.615
-7.635
-7.655
-7.65
-7.675
-7.695
-7.685
-7.69
-7.71
-7.725
-7.715
-7.725
-7.735
-7.745
-7.755
-7.77
-7.76
-7.76
-7.75
-7.73
-7.74
-7.735
-7.74
-7.735
-7.725
-7.74
-7.715
-7.715
-7.725
-7.73
-7.72
-7.705
-7.68
-7.65
-7.64
-7.615
-7.6
-7.595
-7.58
-7.57
-7.56
-7.55
-7.54
-7.515
-7.5
-7.465
-7.465
-7.45
-7.44
-7.435
-7.44
-7.43
-7.425
-7.425
-7.42
-7.41
-7.4
-7.405
-7.42
-7.415
-7.405
-7.425
-7.42
-7.425
-7.42
-7.415
-7.415
-7.395
-7.39
-7.39
-7.395
-7.4
-7.4
-7.4
-7.435
-7.44
-7.435
-7.42
-7.395
-7.39
-7.375
-7.365
-7.375
-7.4
-7.42
-7.455
-7.455
-7.455
-7.45
-7.44
-7.44
-7.43
-7.42
-7.415
-7.425
-7.42
-7.425
-7.43
-7.44
-7.435
-7.435
-7.44
-7.45
-7.46
-7.455
-7.435
-7.435
-7.44
-7.445
-7.44
-7.435
-7.45
-7.445
-7.44
-7.445
-7.43
-7.415
-7.39
-7.385
-7.385
-7.37
-7.36
-7.36
-7.385
-7.35
-7.315
-7.3
-7.275
-7.24
-7.215
-7.22
-7.235
-7.23
-7.225
-7.225
-7.24
-7.245
-7.265
-7.265
-7.28
-7.285
-7.29
-7.295
-7.305
-7.325
-7.315
-7.3
-7.29
-7.285
-7.26
-7.255
-7.265
-7.29
-7.315
-7.34
-7.365
-7.39
-7.41
-7.405
-7.435
-7.445
-7.47
-7.465
-7.465
-7.465
-7.455
-7.46
-7.455
-7.465
-7.46
-7.475
-7.47
-7.47
-7.47
-7.46
-7.44
-7.43
-7.43
-7.445
-7.465
-7.49
-7.525
-7.55
-7.565
-7.595
-7.61
-7.565
-7.475
-7.35
-7.22
-7.1
-7.02
-7.0
-7.005
-6.97
-6.85
-6.65
-6.365
-6.08
-5.89
-5.855
-5.975
-6.29
-6.73
-7.2
-7.605
-7.87
-8.035
-8.135
-8.215
-8.29
-8.37
-8.455
-8.49
-8.535
-8.515
-8.505
-8.52
-8.49
-8.49
-8.47
-8.43
-8.37
-8.3
-8.17
-8.02
-7.885
-7.72
-7.62
-7.54
-7.47
-7.45
-7.43
-7.42
-7.41
-7.415
-7.39
-7.385
-7.385
-7.38
-7.39
-7.385
-7.38
-7.395
-7.395
-7.4
-7.415
-7.4
-7.4
-7.4
-7.41
-7.4
-7.41
-7.43
-7.45
-7.475
-7.48
-7.48
-7.48
-7.47
-7.5
-7.505
-7.525
-7.545
-7.545
-7.58
-7.595
-7.61
-7.615
-7.605
-7.585
-7.57
-7.555
-7.535
-7.54
-7.555
-7.565
-7.56
-7.555
-7.58
-7.585
-7.585
-7.6
-7.59
-7.545
-7.525
-7.52
-7.515
-7.52
-7.495
-7.48
-7.45
-7.425
-7.4
-7.395
-7.385
-7.345
-7.33
-7.335
-7.325
-7.305
-7.31
-7.285
-7.275
-7.295
-7.31
-7.31
-7.32
-7.325
-7.315
-7.325
-7.32
-7.31
-7.315
-7.31
-7.315
-7.335
-7.335
-7.32
-7.305
-7.295
-7.275
-7.285
-7.3
-7.305
-7.335
-7.35
-7.37
-7.385
-7.395
-7.385
-7.38
-7.375
-7.37
-7.34
-7.345
-7.34
-7.345
-7.35
-7.39
-7.4
-7.4
-7.37
-7.35
-7.37
-7.39
-7.405
-7.39
-7.385
-7.38
-7.4
-7.4
-7.395
-7.395
-7.38
-7.35
-7.345
-7.335
-7.35
-7.37
-7.375
-7.395
-7.425
-7.43
-7.42
-7.395
-7.375
-7.335
-7.28
-7.24
-7.235
-7.215
-7.19
-7.21
-7.2
-7.21
-7.19
-7.175
-7.165
-7.135
-7.125
-7.1
-7.11
-7.155
-7.16
-7.195
-7.21
-7.235
-7.275
-7.275
-7.28
-7.295
-7.305
-7.29
-7.275
-7.26
-7.245
-7.24
-7.22
-7.245
-7.28
-7.325
-7.34
-7.365
-7.375
-7.355
-7.355
-7.385
-7.395
-7.415
-7.44
-7.43
-7.435
-7.425
-7.435
-7.44
-7.45
-7.445
-7.445
-7.445
-7.445
-7.45
-7.455
-7.45
-7.465
-7.485
-7.52
-7.5
-7.475
-7.47
-7.49
-7.525
-7.57
-7.605
-7.63
-7.625
-7.565
-7.45
-7.315
-7.16
-7.035
-6.955
-6.975
-6.96
-6.925
-6.815
-6.62
-6.355
-6.09
-5.94
-5.935
-6.16
-6.575
-7.08
-7.575
-7.925
-8.155
-8.26
-8.305
-8.35
-8.43
-8.515
-8.575
-8.615
-8.625
-8.625
-8.62
-8.63
-8.62
-8.615
-8.575
-8.53
-8.46
-8.375
-8.24
-8.08
-7.91
-7.76
-7.645
-7.57
-7.51
-7.48
-7.475
-7.485
-7.465
-7.485
-7.47
-7.45
-7.46
-7.46
-7.465
-7.46
-7.47
-7.465
-7.46
-7.46
-7.455
-7.445
-7.44
-7.43
-7.445
-7.45
-7.46
-7.445
-7.435
-7.45
-7.49
-7.545
-7.605
-7.63
-7.64
-7.665
-7.645
-7.62
-7.62
-7.625
-7.635
-7.645
-7.66
-7.68
-7.72
-7.735
-7.735
-7.74
-7.73
-7.685
-7.645
-7.64
-7.64
-7.66
-7.69
-7.68
-7.655
-7.65
-7.62
-7.605
-7.595
-7.57
-7.57
-7.58
-7.565
-7.56
-7.535
-7.525
-7.535
-7.525
-7.505
-7.49
-7.455
-7.43
-7.42
-7.415
-7.41
-7.425
-7.435
-7.45
-7.475
-7.515
-7.49
-7.445
-7.42
-7.38
-7.375
-7.395
-7.43
-7.46
-7.505
-7.555
-7.58
-7.585
-7.56
-7.54
-7.49
-7.455
-7.435
-7.44
-7.435
-7.445
-7.485
-7.52
-7.55
-7.55
-7.525
-7.52
-7.525
-7.525
-7.545
-7.565
-7.605
-7.615
-7.605
-7.595
-7.585
-7.58
-7.565
-7.575
-7.605
-7.61
-7.605
-7.6
-7.6
-7.575
-7.565
-7.585
-7.575
-7.595
-7.6
-7.62
-7.625
-7.64
-7.645
-7.63
-7.625
-7.65
-7.645
-7.65
-7.635
-7.62
-7.6
-7.565
-7.585
-7.595
-7.625
-7.615
-7.59
-7.55
-7.545
-7.535
-7.54
-7.515
-7.495
-7.465
-7.425
-7.38
-7.35
-7.335
-7.34
-7.375
-7.415
-7.46
-7.5
-7.515
-7.52
-7.495
-7.47
-7.44
-7.45
-7.455
-7.485
-7.5
-7.525
-7.51
-7.515
-7.555
-7.58
-7.635
-7.67
-7.69
-7.685
-7.7
-7.71
-7.735
-7.725
-7.72
-7.735
-7.74
-7.745
-7.73
-7.705
-7.705
-7.69
-7.685
-7.685
-7.7
-7.765
-7.82
-7.85
-7.875
-7.855
-7.82
-7.785
-7.77
-7.775
-7.78
-7.775
-7.75
-7.675
-7.54
-7.375
-7.2
-7.08
-7.01
-7.01
-6.965
-6.845
-6.62
-6.375
-6.23
-6.205
-6.43
-6.885
-7.44
-7.97
-8.38
-8.635
-8.76
-8.795
-8.84
-8.885
-8.93
-8.97
-8.995
-9.015
-9.005
-9.0
-9.0
-8.97
-8.925
-8.875
-8.82
-8.76
-8.67
-8.53
-8.365
-8.2
-8.05
-7.935
-7.85
-7.8
-7.765
-7.755
-7.765
-7.75
-7.76
-7.765
-7.75
-7.73
-7.73
-7.73
-7.72
-7.695
-7.695
-7.69
-7.72
-7.74
-7.735
-7.75
-7.76
-7.775
-7.79
-7.79
-7.785
-7.775
-7.79
-7.815
-7.82
-7.84
-7.845
-7.865
-7.865
-7.905
-7.92
-7.93
-7.9
-7.88
-7.855
-7.855
-7.87
-7.88
-7.91
-7.935
-7.955
-7.97
-7.965
-7.95
-7.925
-7.91
-7.885
-7.87
-7.85
-7.835
-7.81
-7.79
-7.77
-7.775
-7.775
-7.755
-7.73
-7.72
-7.695
-7.69
-7.67
-7.655
-7.665
-7.64
-7.66
-7.675
-7.68
-7.67
-7.645
-7.64
-7.605
-7.6
-7.61
-7.645
-7.68
-7.73
-7.77
-7.81
-7.805
-7.815
-7.805
-7.79
-7.76
-7.745
-7.75
-7.78
-7.81
-7.85
-7.865
-7.895
-7.895
-7.87
-7.85
-7.86
-7.84
-7.84
-7.865
-7.865
-7.875
-7.84
-7.825
-7.825
-7.82
-7.82
-7.83
-7.845
-7.83
-7.835
-7.83
-7.855
-7.865
-7.895
-7.915
-7.915
-7.9
-7.89
-7.86
-7.84
-7.825
-7.815
-7.84
-7.855
-7.885
-7.905
-7.905
-7.9
-7.89
-7.875
-7.855
-7.84
-7.83
-7.82
-7.82
-7.815
-7.825
-7.815
-7.805
-7.795
-7.8
-7.78
-7.75
-7.72
-7.705
-7.705
-7.685
-7.68
-7.665
-7.66
-7.675
-7.69
-7.69
-7.71
-7.72
-7.745
-7.765
-7.78
-7.785
-7.775
-7.775
-7.755
-7.755
-7.74
-7.76
-7.77
-7.79
-7.82
-7.84
-7.85
-7.855
-7.865
-7.87
-7.9
-7.915
-7.95
-7.955
-7.95
-7.95
-7.95
-7.965
-7.96
-7.965
-7.97
-7.99
-7.985
-7.98
-8.01
-8.005
-7.985
-7.985
-7.97
-7.95
-7.95
-7.955
-7.97
-8.0
-8.02
-8.07
-8.12
-8.14
-8.135
-8.075
-7.96
-7.825
-7.66
-7.495
-7.375
-7.305
-7.315
-7.31
-7.275
-7.165
-6.97
-6.73
-6.5
-6.395
-6.435
-6.685
-7.115
-7.66
-8.145
-8.555
-8.785
-8.88
-8.91
-8.925
-8.945
-9.005
-9.085
-9.15
-9.18
-9.19
-9.16
-9.145
-9.13
-9.105
-9.08
-9.035
-8.97
-8.87
-8.775
-8.64
-8.49
-8.36
-8.22
-8.125
-8.04
-7.995
-7.965
-7.96
-7.945
-7.925
-7.875
-7.885
-7.885
-7.88
-7.885
-7.875
-7.86
-7.87
-7.875
-7.865
-7.855
-7.86
-7.855
-7.86
-7.88
-7.91
-7.93
-7.95
-7.96
-7.955
-7.95
-7.95
-7.94
-7.925
-7.935
-7.97
-8.0
-8.0
-8.015
-8.03
-8.03
-8.04
-8.02
-8.015
-8.005
-8.01
-8.015
-8.035
-8.03
-8.05
-8.09
-8.085
-8.085
-8.09
-8.08
-8.055
-8.045
-8.03
-8.025
-8.02
-8.02
-8.0
-7.995
-7.955
-7.935
-7.915
-7.9
-7.875
-7.845
-7.825
-7.795
-7.77
-7.76
-7.76
-7.76
-7.77
-7.765
-7.77
-7.74
-7.725
-7.715
-7.695
-7.705
-7.71
-7.72
-7.725
-7.72
-7.72
-7.71
-7.72
-7.725
-7.735
-7.74
-7.73
-7.725
-7.72
-7.705
-7.725
-7.74
-7.77
-7.78
-7.78
-7.77
-7.75
-7.735
-7.73
-7.72
-7.74
-7.74
-7.745
-7.75
-7.755
-7.78
-7.775
-7.775
-7.76
-7.73
-7.735
-7.73
-7.73
-7.745
-7.765
-7.785
-7.795
-7.815
-7.815
-7.785
-7.76
-7.73
-7.735
-7.73
-7.72
-7.725
-7.74
-7.76
-7.78
-7.78
-7.78
-7.775
-7.77
-7.75
-7.73
-7.705
-7.71
-7.695
-7.685
-7.67
-7.66
-7.655
-7.645
-7.635
-7.62
-7.575
-7.57
-7.565
-7.55
-7.525
-7.52
-7.49
-7.485
-7.49
-7.485
-7.485
-7.515
-7.535
-7.555
-7.58
-7.585
-7.605
-7.605
-7.58
-7.57
-7.555
-7.53
-7.51
-7.5
-7.535
-7.575
-7.595
-7.65
-7.68
-7.69
-7.7
-7.705
-7.715
-7.74
-7.745
-7.75
-7.755
-7.745
-7.745
-7.745
-7.725
-7.745
-7.76
-7.775
-7.79
-7.785
-7.77
-7.765
-7.755
-7.755
-7.755
-7.755
-7.765
-7.76
-7.78
-7.8
-7.825
-7.845
-7.855
-7.845
-7.795
-7.685
-7.54
-7.38
-7.24
-7.145
-7.105
-7.11
-7.1
-7.005
-6.815
-6.555
-6.32
-6.16
-6.185
-6.45
-6.93
-7.48
-7.995
-8.375
-8.61
-8.71
-8.78
-8.82
-8.86
-8.915
-8.945
-8.96
-8.955
-8.96
-8.955
-8.93
-8.885
-8.855
-8.795
-8.715
-8.605
-8.445
-8.295
-8.135
-7.99
-7.885
-7.81
-7.79
-7.765
-7.76
-7.755
-7.74
-7.725
-7.69
-7.67
-7.665
-7.67
-7.69
-7.69
-7.715
-7.715
-7.71
-7.7
-7.685
-7.69
-7.685
-7.7
-7.695
-7.7
-7.71
-7.71
-7.73
-7.755
-7.76
-7.76
-7.79
-7.8
-7.805
-7.805
-7.83
-7.815
-7.805
-7.825
-7.845
-7.855
-7.875
-7.87
-7.845
-7.835
-7.835
-7.83
-7.845
-7.87
-7.87
-7.87
-7.86
-7.855
-7.84
-7.815
-7.795
-7.785
-7.77
-7.76
-7.745
-7.72
-7.705
-7.685
-7.67
-7.655
-7.65
-7.625
-7.6
-7.585
-7.555
-7.535
-7.55
-7.535
-7.54
-7.55
-7.56
-7.555
-7.555
-7.555
-7.54
-7.55
-7.54
-7.535
-7.535
-7.55
-7.56
-7.555
-7.575
-7.565
-7.56
-7.565
-7.545
-7.545
-7.53
-7.545
-7.55
-7.54
-7.55
-7.575
-7.585
-7.595
-7.595
-7.59
-7.58
-7.575
-7.57
-7.56
-7.575
-7.595
-7.6
-7.61
-7.63
-7.625
-7.605
-7.595
-7.585
-7.585
-7.58
-7.6
-7.6
-7.59
-7.6
-7.61
-7.605
-7.6
-7.605
-7.595
-7.585
-7.59
-7.575
-7.565
-7.585
-7.57
-7.575
-7.57
-7.6
-7.575
-7.56
-7.53
-7.505
-7.465
-7.435
-7.425
-7.425
-7.425
-7.44
-7.42
-7.395
-7.39
-7.36
-7.37
-7.345
-7.31
-7.295
-7.28
-7.29
-7.295
-7.345
-7.38
-7.425
-7.47
-7.5
-7.47
-7.455
-7.405
-7.39
-7.35
-7.34
-7.33
-7.37
-7.41
-7.465
-7.48
-7.515
-7.52
-7.52
-7.505
-7.525
-7.535
-7.555
-7.57
-7.59
-7.615
-7.62
-7.625
-7.605
-7.625
-7.595
-7.585
-7.58
-7.595
-7.605
-7.625
-7.635
-7.635
-7.635
-7.63
-7.615
-7.625
-7.62
-7.625
-7.635
-7.655
-7.69
-7.7
-7.69
-7.645
-7.57
-7.445
-7.295
-7.135
-7.015
-6.965
-6.96
-6.95
-6.865
-6.69
-6.445
-6.2
-6.02
-5.985
-6.175
-6.565
-7.07
-7.6
-8.015
-8.305
-8.445
-8.505
-8.56
-8.635
-8.725
-8.78
-8.85
-8.875
-8.87
-8.865
-8.84
-8.805
-8.77
-8.74
-8.715
-8.67
-8.625
-8.515
-8.365
-8.195
-8.025
-7.87
-7.75
-7.685
-7.63
-7.6
-7.615
-7.615
-7.59
-7.57
-7.57
-7.565
-7.535
-7.525
-7.52
-7.525
-7.525
-7.52
-7.525
-7.54
-7.555
-7.565
-7.585
-7.57
-7.555
-7.55
-7.545
-7.57
-7.59
-7.6
-7.62
-7.635
-7.665
-7.66
-7.675
-7.685
-7.68
-7.67
-7.67
-7.69
-7.685
-7.7
-7.71
-7.715
-7.745
-7.74
-7.73
-7.73
-7.715
-7.705
-7.695
-7.685
-7.685
-7.68
-7.665
-7.68
-7.65
-7.635
-7.62
-7.6
-7.58
-7.555
-7.55
-7.535
-7.53
-7.53
-7.52
-7.495
-7.495
-7.495
-7.455
-7.45
-7.435
-7.43
-7.425
-7.42
-7.435
-7.445
-7.455
-7.455
-7.475
-7.47
-7.465
-7.465
-7.45
-7.465
-7.46
-7.46
-7.465
-7.46
-7.45
-7.475
-7.47
-7.505
-7.51
-7.5
-7.495
-7.48
-7.475
-7.47
-7.485
-7.48
-7.5
-7.505
-7.525
-7.545
-7.55
-7.555
-7.535
-7.515
-7.52
-7.505
-7.51
-7.51
-7.53
-7.535
-7.54
-7.555
-7.575
-7.565
-7.555
-7.565
-7.54
-7.545
-7.54
-7.535
-7.55
-7.56
-7.57
-7.575
-7.545
-7.555
-7.545
-7.53
-7.53
-7.515
-7.495
-7.48
-7.49
-7.495
-7.485
-7.45
-7.45
-7.42
-7.395
-7.37
-7.36
-7.315
-7.305
-7.305
-7.31
-7.305
-7.325
-7.34
-7.345
-7.365
-7.37
-7.395
-7.405
-7.425
-7.42
-7.425
-7.415
-7.39
-7.39
-7.38
-7.39
-7.385
-7.415
-7.44
-7.465
-7.495
-7.505
-7.525
-7.55
-7.57
-7.595
-7.605
-7.605
-7.605
-7.59
-7.585
-7.57
-7.56
-7.57
-7.59
-7.59
-7.61
-7.615
-7.61
-7.595
-7.595
-7.575
-7.565
-7.57
-7.545
-7.545
-7.555
-7.58
-7.605
-7.625
-7.655
-7.695
-7.695
-7.665
-7.585
-7.47
-7.33
-7.21
-7.09
-7.025
-7.01
-7.01
-6.98
-6.85
-6.6
-6.31
-6.06
-5.9
-5.92
-6.15
-6.575
-7.095
-7.585
-7.95
-8.175
-8.285
-8.325
-8.37
-8.435
-8.525
-8.595
-8.65
-8.66
-8.65
-8.62
-8.615
-8.59
-8.56
-8.525
-8.485
-8.44
-8.355
-8.245
-8.085
-7.91
-7.745
-7.63
-7.525
-7.47
-7.425
-7.415
-7.42
-7.41
-7.395
-7.375
-7.375
-7.36
-7.345
-7.34
-7.34
-7.345
-7.355
-7.36
-7.36
-7.35
-7.355
-7.35
-7.355
-7.35
-7.375
-7.37
-7.39
-7.405
-7.395
-7.405
-7.425
-7.42
-7.43
-7.45
-7.455
-7.455
-7.46
-7.465
-7.475
-7.505
-7.49
-7.475
-7.475
-7.48
-7.485
-7.495
-7.495
-7.485
-7.49
-7.5
-7.515
-7.525
-7.51
-7.495
-7.48
-7.455
-7.45
-7.425
-7.4
-7.375
-7.37
-7.36
-7.35
-7.325
-7.305
-7.265
-7.23
-7.235
-7.21
-7.19
-7.17
-7.165
-7.175
-7.18
-7.185
-7.18
-7.17
-7.19
-7.17
-7.165
-7.16
-7.145
-7.12
-7.125
-7.135
-7.16
-7.155
-7.16
-7.16
-7.15
-7.145
-7.135
-7.14
-7.125
-7.14
-7.13
-7.135
-7.16
-7.175
-7.18
-7.185
-7.2
-7.175
-7.15
-7.145
-7.12
-7.125
-7.145
-7.17
-7.175
-7.175
-7.185
-7.18
-7.18
-7.205
-7.185
-7.175
-7.165
-7.16
-7.155
-7.155
-7.165
-7.18
-7.195
-7.2
-7.205
-7.2
-7.195
-7.19
-7.185
-7.17
-7.165
-7.18
-7.18
-7.18
-7.17
-7.17
-7.16
-7.155
-7.135
-7.125
-7.11
-7.08
-7.09
-7.085
-7.07
-7.06
-7.045
-7.01
-6.995
-6.985
-6.96
-6.955
-6.935
-6.95
-6.93
-6.95
-6.965
-6.98
-7.02
-7.04
-7.05
-7.07
-7.065
-7.07
-7.05
-7.02
-6.995
-6.98
-6.975
-7.005
-7.03
-7.075
-7.11
-7.12
-7.13
-7.13
-7.13
-7.135
-7.15
-7.175
-7.185
-7.21
-7.23
-7.22
-7.22
-7.23
-7.21
-7.22
-7.22
-7.225
-7.225
-7.23
-7.23
-7.23
-7.215
-7.23
-7.22
-7.215
-7.215
-7.21
-7.225
-7.245
-7.255
-7.285
-7.32
-7.34
-7.36
-7.395
-7.35
-7.28
-7.185
-7.055
-6.915
-6.83
-6.8
-6.81
-6.805
-6.745
-6.585
-6.345
-6.05
-5.79
-5.625
-5.65
-5.88
-6.27
-6.705
-7.13
-7.48
-7.695
-7.8
-7.875
-7.96
-8.06
-8.135
-8.205
-8.265
-8.32
-8.305
-8.285
-8.285
-8.285
-8.265
-8.25
-8.225
-8.19
-8.15
-8.06
-7.945
-7.79
-7.615
-7.495
-7.36
-7.3
-7.26
-7.23
-7.225
-7.215
-7.2
-7.165
-7.155
-7.125
-7.125
-7.145
-7.14
-7.17
-7.175
-7.18
-7.19
-7.175
-7.165
-7.165
-7.165
-7.205
-7.2
-7.21
-7.21
-7.22
-7.22
-7.24
-7.26
-7.26
-7.25
-7.255
-7.265
-7.28
-7.285
-7.315
-7.33
-7.34
-7.345
-7.355
-7.36
-7.355
-7.35
-7.355
-7.355
-7.385
-7.385
-7.38
-7.385
-7.39
-7.4
-7.39
-7.39
-7.365
-7.37
-7.33
-7.33
-7.305
-7.3
-7.28
-7.285
-7.3
-7.28
-7.275
-7.25
-7.215
-7.19
-7.175
-7.15
-7.13
-7.125
-7.125
-7.125
-7.125
-7.135
-7.11
-7.12
-7.105
-7.1
-7.105
-7.09
-7.085
-7.085
-7.085
-7.09
-7.09
-7.1
-7.1
-7.1
-7.095
-7.1
-7.1
-7.09
-7.1
-7.1
-7.11
-7.11
-7.13
-7.145
-7.15
-7.125
-7.11
-7.095
-7.085
-7.085
-7.075
-7.07
-7.075
-7.08
-7.095
-7.1
-7.105
-7.09
-7.085
-7.08
-7.07
-7.065
-7.045
-7.03
-7.045
-7.065
-7.09
-7.11
-7.135
-7.155
-7.145
-7.14
-7.12
-7.135
-7.135
-7.105
-7.125
-7.135
-7.17
-7.18
-7.195
-7.21
-7.215
-7.19
-7.17
-7.16
-7.175
-7.175
-7.205
-7.23
-7.265
-7.27
-7.27
-7.26
-7.245
-7.23
-7.21
-7.215
-7.205
-7.215
-7.235
-7.225
-7.245
-7.24
-7.245
-7.25
-7.25
-7.24
-7.24
-7.24
-7.23
-7.235
-7.23
-7.245
-7.25
-7.265
-7.25
-7.24
-7.235
-7.23
-7.25
-7.25
-7.28
-7.32
-7.375
-7.425
-7.455
-7.395
-7.32
-7.205
-7.105
-6.98
-6.91
-6.875
-6.81
-6.72
-6.525
-6.265
-5.975
-5.755
-5.68
-5.77
-6.06
-6.475
-6.925
-7.32
-7.605
-7.765
-7.86
-7.935
-8.03
-8.145
-8.24
-8.325
-8.38
-8.375
-8.37
-8.36
-8.365
-8.355
-8.345
-8.335
-8.305
-8.27
-8.175
-8.05
-7.89
-7.71
-7.55
-7.425
-7.355
-7.295
-7.28
-7.285
-7.275
-7.285
-7.27
-7.25
-7.235
-7.215
-7.225
-7.235
-7.23
-7.235
-7.255
-7.26
-7.27
-7.265
-7.275
-7.27
-7.27
-7.27
-7.295
-7.3
-7.305
-7.32
-7.335
-7.345
-7.365
-7.38
-7.405
-7.4
-7.4
-7.405
-7.415
-7.42
-7.44
-7.47
-7.485
-7.49
-7.485
-7.495
-7.51
-7.495
-7.515
-7.485
-7.485
-7.45
-7.475
-7.46
-7.47
-7.47
-7.465
-7.46
-7.45
-7.435
-7.4
-7.375
-7.36
-7.345
-7.335
-7.32
-7.29
-7.29
-7.28
-7.275
-7.27
-7.255
-7.25
-7.25
-7.225
-7.225
-7.22
-7.235
-7.235
-7.25
-7.245
-7.245
-7.245
-7.23
-7.225
-7.2
-7.205
-7.205
-7.225
-7.235
-7.235
-7.265
-7.28
-7.265
-7.26
-7.255
-7.255
-7.23
-7.24
-7.245
-7.26
-7.255
-7.275
-7.285
-7.3
-7.315
-7.315
-7.325
-7.305
-7.3
-7.3
-7.275
-7.29
-7.28
-7.3
-7.31
-7.31
-7.32
-7.325
-7.32
-7.31
-7.3
-7.3
-7.28
-7.295
-7.29
-7.3
-7.3
-7.305
-7.31
-7.305
-7.33
-7.32
-7.315
-7.31
-7.305
-7.31
-7.305
-7.315
-7.31
-7.31
-7.315
-7.32
-7.315
-7.305
-7.31
-7.32
-7.29
-7.305
-7.295
-7.31
-7.305
-7.325
-7.31
-7.325
-7.335
-7.32
-7.31
-7.3
-7.275
-7.295
-7.3
-7.29
-7.31
-7.295
-7.295
-7.285
-7.25
-7.235
-7.235
-7.2
-7.19
-7.16
-7.16
-7.15
-7.14
-7.135
-7.135
-7.115
-7.11
-7.105
-7.095
-7.085
-7.1
-7.125
-7.155
-7.185
-7.23
-7.25
-7.25
-7.265
-7.235
-7.22
-7.18
-7.175
-7.145
-7.15
-7.17
-7.22
-7.27
-7.315
-7.34
-7.38
-7.38
-7.36
-7.355
-7.38
-7.395
-7.415
-7.43
-7.45
-7.48
-7.475
-7.475
-7.46
-7.465
-7.435
-7.43
-7.43
-7.435
-7.445
-7.45
-7.45
-7.465
-7.475
-7.48
-7.49
-7.505
-7.515
-7.545
-7.57
-7.59
-7.625
-7.62
-7.555
-7.455
-7.33
-7.22
-7.105
-7.03
-7.04
-7.025
-6.97
-6.815
-6.595
-6.315
-6.06
-5.905
-5.93
-6.16
-6.57
-7.075
-7.54
-7.87
-8.08
-8.2
-8.285
-8.36
-8.465
-8.55
-8.62
-8.66
-8.675
-8.675
-8.665
-8.655
-8.635
-8.61
-8.545
-8.47
-8.375
-8.24
-8.11
-7.935
-7.79
-7.67
-7.59
-7.53
-7.505
-7.485
-7.495
-7.495
-7.49
-7.48
-7.475
-7.47
-7.47
-7.47
-7.46
-7.44
-7.44
-7.445
-7.45
-7.455
-7.47
-7.49
-7.49
-7.505
-7.52
-7.52
-7.525
-7.535
-7.525
-7.52
-7.545
-7.57
-7.58
-7.595
-7.64
-7.635
-7.64
-7.665
-7.66
-7.655
-7.645
-7.67
-7.675
-7.68
-7.695
-7.705
-7.705
-7.7
-7.7
-7.68
-7.685
-7.655
-7.645
-7.625
-7.63
-7.625
-7.635
-7.64
-7.625
-7.61
-7.595
-7.575
-7.565
-7.535
-7.515
-7.49
-7.475
-7.45
-7.445
-7.44
-7.435
-7.42
-7.42
-7.415
-7.4
-7.39
-7.38
-7.39
-7.395
-7.385
-7.38
-7.37
-7.39
-7.39
-7.385
-7.395
-7.405
-7.41
-7.39
-7.395
-7.4
-7.405
-7.41
-7.425
-7.45
-7.465
-7.47
-7.46
-7.44
-7.44
-7.43
-7.425
-7.425
-7.44
-7.45
-7.455
-7.455
-7.495
-7.5
-7.485
-7.48
-7.485
-7.495
-7.48
-7.48
-7.48
-7.495
-7.495
-7.51
-7.52
-7.525
-7.525
-7.525
-7.52
-7.52
-7.505
-7.51
-7.505
-7.505
-7.51
-7.52
-7.535
-7.55
-7.54
-7.52
-7.515
-7.505
-7.51
-7.505
-7.52
-7.52
-7.535
-7.52
-7.535
-7.51
-7.49
-7.47
-7.435
-7.4
-7.39
-7.38
-7.37
-7.37
-7.355
-7.36
-7.33
-7.33
-7.315
-7.3
-7.28
-7.28
-7.255
-7.255
-7.275
-7.31
-7.34
-7.37
-7.41
-7.435
-7.45
-7.425
-7.42
-7.4
-7.365
-7.345
-7.325
-7.325
-7.345
-7.38
-7.42
-7.47
-7.495
-7.51
-7.53
-7.51
-7.52
-7.54
-7.555
-7.57
-7.59
-7.605
-7.605
-7.61
-7.625
-7.605
-7.61
-7.575
-7.57
-7.58
-7.59
-7.585
-7.585
-7.605
-7.61
-7.62
-7.61
-7.61
-7.61
-7.61
-7.63
-7.66
-7.71
-7.75
-7.785
-7.755
-7.68
-7.575
-7.425
-7.29
-7.19
-7.145
-7.155
-7.115
-7.005
-6.82
-6.55
-6.27
-6.07
-6.05
-6.215
-6.565
-7.045
-7.535
-7.93
-8.21
-8.375
-8.475
-8.555
-8.625
-8.695
-8.785
-8.815
-8.83
-8.815
-8.81
-8.79
-8.775
-8.755
-8.735
-8.715
-8.685
-8.58
-8.48
-8.31
-8.12
-7.925
-7.78
-7.67
-7.63
-7.61
-7.62
-7.635
-7.645
-7.635
-7.615
-7.605
-7.575
-7.56
-7.55
-7.525
-7.535
-7.545
-7.56
-7.57
-7.58
-7.575
-7.58
-7.585
-7.58
-7.605
-7.595
-7.63
-7.635
-7.65
-7.675
-7.69
-7.705
-7.715
-7.73
-7.74
-7.74
-7.74
-7.745
-7.745
-7.75
-7.75
-7.765
-7.775
-7.78
-7.78
-7.8
-7.8
-7.785
-7.77
-7.76
-7.745
-7.765
-7.775
-7.78
-7.79
-7.78
-7.76
-7.755
-7.735
-7.7
-7.665
-7.66
-7.63
-7.63
-7.61
-7.595
-7.59
-7.565
-7.565
-7.55
-7.535
-7.52
-7.505
-7.48
-7.475
-7.48
-7.49
-7.505
-7.51
-7.5
-7.51
-7.5
-7.48
-7.465
-7.46
-7.435
-7.445
-7.46
-7.47
-7.485
-7.505
-7.51
-7.505
-7.53
-7.54
-7.525
-7.52
-7.51
-7.5
-7.5
-7.51
-7.535
-7.545
-7.56
-7.565
-7.56
-7.58
-7.565
-7.545
-7.55
-7.545
-7.565
-7.57
-7.58
-7.585
-7.585
-7.58
-7.58
-7.59
-7.56
-7.56
-7.555
-7.54
-7.54
-7.54
-7.54
-7.555
-7.585
-7.595
-7.6
-7.595
-7.595
-7.58
-7.555
-7.555
-7.565
-7.56
-7.55
-7.575
-7.59
-7.59
-7.575
-7.585
-7.585
-7.585
-7.575
-7.545
-7.545
-7.54
-7.52
-7.5
-7.485
-7.465
-7.455
-7.445
-7.43
-7.415
-7.39
-7.37
-7.36
-7.355
-7.345
-7.35
-7.35
-7.335
-7.34
-7.335
-7.34
-7.355
-7.385
-7.4
-7.43
-7.455
-7.47
-7.47
-7.455
-7.445
-7.435
-7.415
-7.39
-7.375
-7.405
-7.435
-7.465
-7.5
-7.525
-7.55
-7.565
-7.555
-7.565
-7.58
-7.595
-7.6
-7.61
-7.61
-7.63
-7.625
-7.64
-7.635
-7.63
-7.625
-7.645
-7.645
-7.625
-7.62
-7.615
-7.605
-7.615
-7.615
-7.63
-7.635
-7.645
-7.635
-7.67
-7.66
-7.66
-7.67
-7.685
-7.71
-7.75
-7.76
-7.74
-7.705
-7.63
-7.515
-7.405
-7.28
-7.21
-7.18
-7.17
-7.15
-7.07
-6.895
-6.645
-6.355
-6.095
-5.965
-5.995
-6.22
-6.6
-7.065
-7.515
-7.85
-8.075
-8.205
-8.285
-8.38
-8.48
-8.58
-8.675
-8.73
-8.735
-8.73
-8.705
-8.68
-8.695
-8.675
-8.675
-8.665
-8.63
-8.57
-8.48
-8.335
-8.145
-7.965
-7.815
-7.7
-7.65
-7.605
-7.59
-7.6
-7.61
-7.62
-7.615
-7.58
-7.55
-7.53
-7.51
-7.505
-7.515
-7.505
-7.505
-7.505
-7.525
-7.535
-7.55
-7.56
-7.565
-7.52
-7.52
-7.53
-7.545
-7.565
-7.585
-7.605
-7.62
-7.62
-7.635
-7.655
-7.635
-7.645
-7.655
-7.635
-7.65
-7.655
-7.685
-7.695
-7.72
-7.725
-7.73
-7.74
-7.74
-7.72
-7.73
-7.71
-7.715
-7.73
-7.73
-7.74
-7.725
-7.725
-7.71
-7.705
-7.69
-7.67
-7.665
-7.64
-7.62
-7.595
-7.59
-7.585
-7.57
-7.56
-7.535
-7.52
-7.52
-7.51
-7.475
-7.475
-7.45
-7.435
-7.42
-7.43
-7.43
-7.42
-7.445
-7.435
-7.415
-7.385
-7.385
-7.37
-7.375
-7.385
-7.385
-7.4
-7.42
-7.42
-7.42
-7.415
-7.425
-7.41
-7.395
-7.375
-7.385
-7.395
-7.41
-7.435
-7.44
-7.44
-7.455
-7.47
-7.455
-7.445
-7.42
-7.42
-7.41
-7.43
-7.44
-7.435
-7.45
-7.455
-7.465
-7.47
-7.475
-7.46
-7.48
-7.475
-7.485
-7.48
-7.485
-7.48
-7.475
-7.47
-7.47
-7.47
-7.48
-7.47
-7.465
-7.455
-7.43
-7.405
-7.33
-7.33
-7.325
-7.31
-7.2
-7.115
-7.06
-6.985
-6.915
-6.86
-6.805
-6.8
-6.805
-6.82
-6.845
-6.91
-6.98
-7.065
-7.18
-7.3
-7.43
-7.58
-7.74
-7.94
-8.09
-8.21
-8.345
-8.405
-8.49
-8.535
-8.58
-8.57
-8.515
-8.535
-8.5
-8.505
-8.515
-8.49
-8.485
-8.535
-8.5
-8.46
-8.41
-8.41
-8.395
-8.405
-8.45
-8.445
-8.505
-8.625
-8.795
-8.77
-8.68
-8.62
-8.71
-8.81
-8.815
-8.68
-8.675
-8.82
-8.875
-8.87
-8.835
-8.715
-8.705
-8.725
-8.79
-8.855
-8.9
-8.885
-8.93
-8.945
-8.945
-8.92
-8.935
-8.98
-9.17
-9.265
-9.32
-9.35
-9.3
-9.14
-8.92
-8.84
-8.8
-8.81
-8.83
-8.9
-8.935
-8.815
-8.63
-8.33
-8.005
-7.675
-7.44
-7.34
-7.44
-7.78
-8.245
-8.71
-9.105
-9.405
-9.61
-9.75
-9.875
-9.955
-9.975
-9.94
-9.865
-9.835
-9.76
-9.66
-9.545
-9.4
-9.25
-9.065
-8.935
-8.8
-8.695
-8.555
-8.36
-8.135
-7.97
-7.84
-7.79
-7.86
-7.925
-8.0
-8.085
-8.135
-8.16
-8.205
-8.285
-8.315
-8.33
-8.35
-8.38
-8.43
-8.465
-8.44
-8.425
-8.41
-8.385
-8.41
-8.45
-8.39
-8.345
-8.295
-8.27
-8.25
-8.23
-8.255
-8.255
-8.265
-8.27
-8.245
-8.245
-8.29
-8.34
-8.405
-8.47
-8.525
-8.56
-8.6
-8.645
-8.655
-8.675
-8.7
-8.715
-8.725
-8.71
-8.7
-8.7
-8.705
-8.675
-8.61
-8.545
-8.535
-8.57
-8.585
-8.575
-8.55
-8.525
-8.53
-8.51
-8.49
-8.455
-8.46
-8.475
-8.47
-8.45
-8.505
-8.525
-8.515
-8.515
-8.535
-8.565
-8.56
-8.545
-8.565
-8.57
-8.565
-8.6
-8.635
-8.64
-8.65
-8.67
-8.665
-8.7
-8.7
-8.695
-8.665
-8.66
-8.65
-8.695
-8.69
-8.675
-8.675
-8.65
-8.68
-8.7
-8.695
-8.665
-8.655
-8.655
-8.645
-8.655
-8.625
-8.615
-8.615
-8.575
-8.58
-8.6
-8.585
-8.595
-8.6
-8.575
-8.535
-8.535
-8.49
-8.49
-8.51
-8.485
-8.53
-8.55
-8.535
-8.515
-8.5
-8.495
-8.485
-8.46
-8.46
-8.47
-8.445
-8.425
-8.43
-8.425
-8.4
-8.385
-8.365
-8.305
-8.235
-8.21
-8.14
-8.105
-8.075
-8.085
-8.115
-8.095
-8.08
-8.015
-7.94
-7.875
-7.8
-7.77
-7.745
-7.745
-7.73
-7.725
-7.755
-7.74
-7.705
-7.68
-7.595
-7.52
-7.5
-7.525
-7.565
-7.59
-7.565
-7.6
-7.655
-7.66
-7.69
-7.675
-7.58
-7.48
-7.405
-7.35
-7.405
-7.425
-7.455
-7.485
-7.53
-7.57
-7.625
-7.64
-7.635
-7.68
-7.69
-7.705
-7.745
-7.77
-7.78
-7.78
-7.72
-7.695
-7.645
-7.575
-7.515
-7.475
-7.5
-7.325
-7.225
-7.115
-7.06
-7.045
-7.05
-7.06
-7.09
-7.09
-7.075
-7.075
-7.1
-7.175
-7.24
-7.325
-7.445
-7.55
-7.655
-7.76
-7.79
-7.76
-7.7
-7.58
-7.47
-7.4
-7.35
-7.305
-7.255
-7.065
-6.825
-6.5
-6.21
-6.055
-6.005
-6.115
-6.61
-6.46
-6.595
-6.675
-6.735
-6.74
-6.725
-6.715
-6.745
-6.745
-6.735
-6.61
-6.41
-6.265
-6.12
-5.985
-5.865
-5.78
-5.69
-5.61
-5.535
-5.495
-5.465
-5.405
-5.35
-5.295
-5.28
-5.315
-5.365
-5.425
-5.55
-5.645
-5.755
-5.9
-6.025
-6.14
-6.05
-6.415
-6.56
-6.695
-6.805
-6.895
-6.96
-7.0
-7.05
-7.12
-7.215
-7.215
-7.19
-7.115
-7.17
-7.19
-7.19
-7.245
-7.275
-7.305
-7.275
-7.275
-7.295
-7.345
-7.375
-7.375
-7.31
-7.385
-7.46
-7.53
-7.475
-7.415
-7.365
-7.42
-7.41
-7.395
-7.41
-7.39
-7.39
-7.365
-7.35
-7.335
-7.32
-7.395
-7.45
-7.48
-7.475
-7.51
-7.565
-7.605
-7.735
-7.82
-7.905
-7.93
-7.965
-8.015
-8.06
-8.005
-7.92
-7.875
-7.89
-7.92
-7.905
-7.88
-7.865
-7.85
-7.84
-7.89
-7.975
-8.02
-8.005
-8.005
-8.005
-8.03
-7.97
-7.93
-7.98
-8.025
-8.045
-8.01
-7.98
-7.94
-7.915
-7.85
-7.75
-7.625
-7.49
-7.37
-7.285
-7.17
-7.09
-7.0
-6.845
-6.715
-6.6
-6.535
-6.47
-6.395
-6.305
-6.09
-5.955
-5.875
-5.9
-6.065
-6.285
-6.42
-6.565
-6.69
-6.66
-6.885
-6.96
-7.05
-7.13
-7.18
-7.225
-7.245
-7.23
-7.195
-7.155
-7.115
-7.09
-7.055
-6.99
-6.965
-6.93
-6.875
-6.87
-6.885
-6.95
-6.96
-6.955
-7.0
-7.03
-7.085
-7.115
-7.185
-7.255
-7.3
-7.315
-7.345
-7.38
-7.385
-7.345
-7.27
-7.265
-7.15
-7.115
-7.09
-7.04
-7.025
-7.01
-7.015
-7.045
-7.07
-7.085
-7.12
-7.125
-7.145
-7.23
-7.305
-7.4
-7.475
-7.56
-7.64
-7.75
-7.75
-7.785
-7.785
-7.78
-7.8
-7.805
-7.825
-7.9
-7.97
-8.03
-8.07
-8.105
-8.12
-8.135
-8.16
-8.14
-8.19
-8.2
-8.2
-8.19
-8.2
-8.235
-8.215
-8.205
-8.215
-8.245
-8.29
-8.35
-8.44
-8.46
-8.485
-8.49
-8.44
-8.4
-8.4
-8.46
-8.445
-8.41
-8.42
-8.42
-8.425
-8.43
-8.445
-8.455
-8.425
-8.345
-8.245
-8.13
-8.015
-7.9
-7.855
-7.84
-7.8
-7.765
-7.65
-7.445
-7.16
-6.845
-6.645
-6.565
-6.685
-6.98
-7.405
-7.86
-8.235
-8.57
-8.79
-8.935
-9.02
-9.095
-9.18
-9.195
-9.195
-9.19
-9.185
-9.165
-9.17
-9.14
-9.1
-9.07
-9.035
-8.94
-8.795
-8.62
-8.43
-8.255
-8.14
-8.055
-7.925
-7.87
-7.82
-7.76
-7.77
-7.8
-7.82
-7.835
-7.865
-7.845
-7.765
-7.66
-7.575
-7.65
-7.725
-7.81
-7.775
-7.77
-7.765
-7.8
-7.785
-7.735
-7.72
-7.705
-7.765
-7.815
-7.845
-7.89
-7.98
-8.025
-8.09
-8.135
-8.15
-8.155
-8.13
-8.125
-8.09
-8.06
-8.0
-7.95
-7.925
-7.895
-7.865
-7.845
-7.8
-7.72
-7.7
-7.665
-7.655
-7.57
-7.515
-7.5
-7.455
-7.38
-7.305
-7.185
-7.09
-7.035
-7.08
-7.085
-7.07
-7.07
-7.055
-7.03
-7.0
-6.955
-6.89
-6.84
-6.82
-6.8
-6.75
-6.76
-6.68
-6.605
-6.505
-6.22
-5.775
-5.31
-4.985
-4.835
-4.685
-4.58
-4.535
-4.53
-4.605
-4.74
-4.935
-5.095
-5.135
-5.175
-5.175
-5.225
-5.215
-5.195
-5.095
-4.99
-4.89
-4.815
-4.745
-4.675
-4.595
-4.615
-4.625
-4.68
-4.77
-4.905
-5.02
-4.955
-5.255
-5.39
-5.55
-5.715
-5.885
-6.06
-6.255
-6.435
-6.57
-6.7
-6.805
-6.925
-7.005
-7.065
-7.135
-7.2
-7.215
-7.245
-7.315
-7.395
-7.395
-7.365
-7.34
-7.31
-7.295
-7.325
-7.435
-7.46
-7.425
-7.385
-7.345
-7.315
-7.27
-7.325
-7.34
-7.345
-7.49
-7.595
-7.62
-7.44
-7.385
-7.45
-7.585
-7.6
-7.575
-7.575
-7.565
-7.545
-7.525
-7.46
-7.535
-7.725
-7.815
-7.835
-7.78
-7.72
-7.74
-7.795
-7.89
-8.025
-8.095
-8.175
-8.25
-8.3
-8.335
-8.405
-8.4
-8.375
-8.39
-8.53
-8.635
-8.59
-8.69
-8.63
-8.56
-8.47
-8.405
-8.36
-8.4
-8.5
-8.57
-8.57
-8.585
-8.555
-8.475
-8.37
-8.265
-8.155
-8.02
-7.92
-7.81
-7.7
-7.545
-7.42
-7.375
-7.195
-6.945
-6.66
-6.45
-6.325
-6.27
-6.285
-6.405
-6.615
-6.855
-7.005
-7.125
-7.075
-7.39
-7.52
-7.61
-7.68
-7.76
-7.84
-7.855
-7.83
-7.73
-7.58
-7.405
-7.225
-7.075
-7.035
-7.04
-7.06
-7.055
-6.975
-6.785
-6.51
-6.215
-5.96
-5.885
-6.02
-6.315
-6.72
-7.23
-7.79
-8.245
-8.645
-8.855
-9.01
-9.13
-9.205
-9.275
-9.355
-9.475
-9.52
-9.515
-9.465
-9.425
-9.445
-9.415
-9.36
-9.305
-9.235
-9.165
-9.055
-8.925
-8.78
-8.63
-8.52
-8.45
-8.43
-8.435
-8.505
-8.58
-8.6
-8.58
-8.575
-8.59
-8.615
-8.745
-8.83
-8.88
-8.86
-8.895
-8.95
-8.95
-8.98
-8.985
-8.97
-8.95
-8.97
-9.0
-9.075
-9.11
-9.125
-9.15
-9.185
-9.22
-9.195
-9.19
-9.145
-9.12
-9.205
-9.255
-9.295
-9.29
-9.335
-9.35
-9.35
-9.345
-9.325
-9.3
-9.285
-9.29
-9.28
-9.33
-9.3
-9.275
-9.235
-9.22
-9.16
-9.075
-9.01
-8.965
-8.955
-8.905
-8.89
-8.845
-8.87
-8.88
-8.87
-8.85
-8.87
-8.9
-8.97
-9.07
-9.165
-9.245
-9.22
-9.185
-9.1
-9.045
-8.995
-8.98
-8.965
-8.985
-9.005
-8.98
-8.95
-8.915
-8.88
-8.895
-8.885
-8.88
-8.89
-8.91
-8.935
-8.93
-8.88
-8.835
-8.84
-8.765
-8.775
-8.76
-8.74
-8.745
-8.77
-8.79
-8.805
-8.815
-8.845
-8.865
-8.845
-8.785
-8.775
-8.795
-8.765
-8.8
-8.825
-8.85
-8.845
-8.845
-8.82
-8.81
-8.82
-8.845
-8.9
-8.925
-8.95
-8.985
-8.965
-8.935
-8.86
-8.765
-8.69
-8.625
-8.655
-8.445
-8.385
-8.365
-8.405
-8.445
-8.49
-8.57
-8.625
-8.645
-8.645
-8.66
-8.645
-8.635
-8.645
-8.62
-8.565
-8.45
-8.385
-8.33
-8.285
-8.29
-8.3
-8.29
-8.265
-8.255
-8.24
-8.21
-8.19
-8.17
-8.16
-8.09
-8.04
-8.03
-8.02
-8.015
-8.04
-7.855
-7.705
-7.52
-7.115
-6.47
-5.765
-5.285
-4.98
-4.685
-4.38
-4.135
-3.995
-3.95
-4.12
-4.305
-4.515
-4.66
-4.775
-4.86
-4.94
-5.035
-5.065
-5.06
-5.07
-5.095
-5.07
-5.12
-5.13
-5.125
-5.16
-5.21
-5.27
-5.325
-5.45
-5.56
-5.51
-5.815
-5.935
-6.07
-6.25
-6.445
-6.635
-6.775
-6.94
-7.1
-7.22
-7.335
-7.44
-7.52
-7.605
-7.645
-7.71
-7.78
-7.795
-7.765
-7.69
-7.58
-7.44
-7.28
-7.145
-7.065
-7.055
-7.105
-7.115
-7.02
-6.825
-6.565
-6.335
-6.165
-6.145
-6.375
-6.82
-7.46
-8.02
-8.385
-8.66
-8.835
-8.92
-8.98
-9.015
-9.01
-9.01
-9.055
-9.085
-9.12
-9.255
-9.295
-9.295
-9.16
-9.155
-9.18
-9.22
-9.22
-9.185
-9.14
-9.06
-9.0
-8.975
-9.01
-9.01
-8.985
-8.975
-8.935
-8.88
-8.79
-8.835
-8.88
-8.845
-8.82
-8.705
-8.66
-8.605
-8.615
-8.66
-8.915
-9.03
-9.055
-9.055
-8.965
-8.77
-8.47
-8.27
-8.3
-8.53
-8.685
-8.84
-8.97
-9.02
-8.9
-8.715
-8.545
-8.45
-8.395
-8.345
-8.185
-8.07
-7.955
-7.925
-7.805
-7.68
-7.575
-7.58
-7.63
-7.595
-7.75
-7.895
-8.065
-8.115
-8.215
-8.295
-8.405
-8.515
-8.565
-8.535
-8.455
-8.375
-8.3
-8.3
-8.275
-8.245
-8.265
-8.295
-8.325
-8.305
-8.29
-8.27
-8.3
-8.26
-8.2
-8.13
-8.125
-8.1
-8.09
-8.085
-8.07
-8.095
-8.195
-8.28
-8.37
-8.35
-8.45
-8.48
-8.535
-8.565
-8.59
-8.62
-8.65
-8.675
-8.69
-8.735
-8.74
-8.76
-8.785
-8.82
-8.85
-8.905
-8.945
-9.0
-9.035
-9.105
-9.125
-9.17
-9.245
-9.33
-9.35
-9.375
-9.435
-9.49
-9.51
-9.54
-9.565
-9.58
-9.6
-9.595
-9.585
-9.59
-9.605
-9.62
-9.61
-9.61
-9.64
-9.685
-9.695
-9.67
-9.65
-9.64
-9.625
-9.63
-9.635
-9.67
-9.675
-9.71
-9.73
-9.715
-9.72
-9.7
-9.655
-9.645
-9.62
-9.605
-9.59
-9.58
-9.58
-9.59
-9.575
-9.56
-9.515
-9.465
-9.42
-9.39
-9.35
-9.34
-9.365
-9.395
-9.415
-9.45
-9.475
-9.48
-9.475
-9.495
-9.505
-9.515
-9.545
-9.58
-9.595
-9.6
-9.635
-9.635
-9.655
-9.71
-9.755
-9.74
-9.765
-9.77
-9.765
-9.735
-9.7
-9.655
-9.6
-9.555
-9.505
-9.505
-9.505
-9.505
-9.47
-9.475
-9.475
-9.51
-9.42
-9.395
-9.405
-9.405
-9.42
-9.465
-9.49
-9.47
-9.465
-9.485
-9.48
-9.495
-9.435
-9.425
-9.43
-9.425
-9.44
-9.415
-9.42
-9.45
-9.46
-9.495
-9.615
-9.645
-9.635
-9.595
-9.63
-9.66
-9.67
-9.705
-9.785
-9.84
-9.845
-9.75
-9.625
-9.45
-9.37
-9.3
-9.285
-9.24
-9.175
-9.005
-8.73
-8.33
-7.95
-7.635
-7.47
-7.57
-7.9
-8.445
-9.0
-9.445
-9.76
-9.95
-10.1
-10.2
-10.325
-10.425
-10.525
-10.605
-10.635
-10.605
-10.595
-10.555
-10.51
-10.48
-10.41
-10.33
-10.24
-10.11
-9.895
-9.765
-9.405
-9.145
-8.905
-8.52
-8.09
-7.7
-7.42
-7.21
-7.04
-6.875
-6.83
-6.835
-6.885
-7.035
-7.155
-7.28
-7.335
-7.355
-7.395
-7.435
-7.47
-7.495
-7.485
-7.435
-7.4
-7.335
-7.31
-7.23
-7.165
-7.105
-7.105
-7.105
-7.105
-7.105
-7.125
-7.115
-7.255
-7.345
-7.435
-7.575
-7.715
-7.88
-8.0
-8.095
-8.235
-8.355
-8.505
-8.655
-8.79
-8.935
-9.0
-9.085
-9.135
-9.175
-9.195
-9.185
-9.22
-9.24
-9.235
-9.25
-9.275
-9.33
-9.335
-9.325
-9.3
-9.26
-9.25
-9.225
-9.215
-9.265
-9.355
-9.31
-9.315
-9.26
-9.27
-9.395
-9.425
-9.375
-9.315
-9.285
-9.265
-9.33
-9.325
-9.33
-9.355
-9.325
-9.335
-9.415
-9.51
-9.555
-9.54
-9.485
-9.535
-9.58
-9.695
-9.735
-9.795
-9.9
-10.03
-10.11
-10.155
-10.19
-10.205
-10.24
-10.205
-10.185
-10.21
-10.205
-10.275
-10.295
-10.285
-10.235
-10.22
-10.205
-10.24
-10.235
-10.22
-10.17
-10.175
-10.22
-10.24
-10.23
-10.255
-10.34
-10.395
-10.33
-10.2
-10.13
-10.155
-10.155
-10.08
-10.055
-10.055
-10.03
-9.945
-9.89
-9.825
-9.68
-9.595
-9.475
-9.335
-9.165
-9.015
-9.06
-8.825
-8.795
-8.775
-8.735
-8.66
-8.625
-8.675
-8.845
-9.06
-9.2
-9.35
-9.445
-9.495
-9.52
-9.59
-9.66
-9.665
-9.705
-9.72
-9.655
-9.625
-9.585
-9.54
-9.48
-9.405
-9.345
-9.27
-9.215
-9.205
-9.205
-9.22
-9.265
-9.305
-9.3
-9.275
-9.265
-9.215
-9.215
-9.23
-9.255
-9.285
-9.31
-9.375
-9.425
-9.51
-9.595
-9.625
-9.66
-9.695
-9.715
-9.725
-9.765
-9.78
-9.8
-9.775
-9.78
-9.785
-9.795
-9.835
-9.855
-9.88
-9.895
-9.92
-9.93
-9.96
-9.96
-10.02
-10.06
-10.085
-10.12
-10.16
-10.155
-10.19
-10.245
-10.26
-10.34
-10.415
-10.52
-10.585
-10.645
-10.635
-10.545
-10.44
-10.315
-10.18
-10.08
-10.055
-10.065
-10.025
-9.955
-9.765
-9.455
-9.17
-8.985
-8.93
-9.085
-9.405
-9.845
-10.32
-10.73
-11.05
-11.145
-11.2
-11.235
-11.335
-11.4
-11.455
-11.51
-11.485
-11.485
-11.47
-11.46
-11.465
-11.465
-11.445
-11.4
-11.34
-11.24
-11.12
-10.965
-10.755
-10.595
-10.435
-10.325
-10.335
-10.355
-10.38
-10.385
-10.365
-10.335
-10.285
-10.22
-10.155
-10.14
-10.12
-10.125
-10.145
-10.16
-10.155
-10.15
-10.14
-10.12
-10.13
-10.115
-10.115
-10.095
-10.055
-10.075
-10.085
-10.09
-10.12
-10.15
-10.15
-10.105
-10.04
-10.005
-9.985
-10.025
-10.08
-10.12
-10.14
-10.155
-10.11
-10.055
-10.065
-10.085
-10.09
-10.115
-10.135
-10.14
-10.06
-10.04
-10.005
-9.91
-9.905
-9.915
-9.945
-9.995
-10.005
-9.99
-9.925
-9.915
-9.895
-9.935
-9.94
-9.945
-9.845
-9.79
-9.75
-9.735
-9.675
-9.62
-9.59
-9.525
-9.435
-9.325
-9.195
-9.085
-8.99
-8.965
-8.945
-8.93
-8.89
-8.87
-8.845
-8.82
-8.8
-8.795
-8.79
-8.765
-8.775
-8.83
-8.86
-8.9
-8.925
-8.92
-8.98
-8.995
-8.965
-8.955
-8.955
-8.955
-8.95
-8.915
-8.85
-8.79
-8.76
-8.695
-8.585
-8.215
-7.835
-7.51
-7.24
-7.075
-6.94
-6.82
-6.785
-6.8
-6.835
-6.92
-6.965
-7.025
-7.01
-7.0
-7.015
-7.04
-7.015
-6.96
-6.875
-6.76
-6.62
-6.67
-6.34
-6.265
-6.22
-6.215
-6.225
-6.31
-6.44
-6.57
-6.685
-6.8
-6.93
-7.06
-7.185
-7.36
-7.52
-7.655
-7.86
-8.04
-8.2
-8.29
-8.36
-8.415
-8.46
-8.49
-8.565
-8.62
-8.61
-8.62
-8.65
-8.685
-8.725
-8.75
-8.745
-8.73
-8.675
-8.655
-8.675
-8.705
-8.73
-8.785
-8.79
-8.755
-8.77
-8.845
-8.92
-9.035
-9.09
-9.07
-8.94
-9.015
-9.07
-9.11
-9.095
-9.105
-9.13
-9.15
-9.115
-9.14
-9.27
-9.35
-9.4
-9.45
-9.585
-9.675
-9.72
-9.705
-9.755
-9.865
-9.93
-10.065
-10.155
-10.155
-10.175
-10.205
-10.19
-10.24
-10.275
-10.265
-10.31
-10.34
-10.35
-10.33
-10.29
-10.25
-10.21
-10.19
-10.195
-10.215
-10.25
-10.295
-10.325
-10.405
-10.44
-10.425
-10.31
-10.145
-9.895
-9.55
-9.295
-9.05
-8.84
-8.645
-8.5
-8.35
-8.175
-7.78
-7.275
-7.08
-6.375
-6.22
-6.305
-6.735
-7.37
-8.025
-8.495
-8.89
-9.175
-9.355
-9.525
-9.675
-9.815
-9.945
-10.035
-10.055
-10.075
-10.05
-10.02
-10.0
-9.96
-9.93
-9.87
-9.78
-9.645
-9.505
-9.335
-9.205
-9.11
-9.04
-8.995
-8.95
-8.945
-8.92
-8.895
-8.865
-8.855
-8.86
-8.855
-8.91
-8.995
-9.05
-9.085
-9.12
-9.185
-9.26
-9.3
-9.33
-9.385
-9.425
-9.48
-9.515
-9.58
-9.615
-9.645
-9.62
-9.625
-9.635
-9.68
-9.705
-9.705
-9.755
-9.78
-9.815
-9.88
-9.92
-9.97
-10.035
-10.085
-10.115
-10.135
-10.14
-10.15
-10.18
-10.21
-10.26
-10.345
-10.395
-10.415
-10.42
-10.425
-10.41
-10.415
-10.4
-10.39
-10.385
-10.385
-10.395
-10.375
-10.36
-10.375
-10.355
-10.3
-10.26
-10.245
-10.27
-10.235
-10.195
-10.24
-10.26
-10.24
-10.24
-10.245
-10.265
-10.25
-10.2
-10.16
-10.145
-10.095
-10.09
-10.135
-10.15
-10.15
-10.165
-10.15
-10.105
-10.085
-10.075
-10.03
-9.985
-9.93
-9.885
-9.86
-9.86
-9.835
-9.855
-9.87
-9.94
-10.05
-10.115
-10.135
-10.095
-10.1
-10.09
-10.19
-10.235
-10.32
-10.315
-10.3
-10.285
-10.29
-10.245
-10.225
-10.21
-10.135
-10.07
-10.03
-10.025
-9.99
-9.95
-9.93
-9.945
-9.95
-9.93
-9.88
-9.84
-9.805
-9.755
-9.745
-9.805
-9.83
-9.845
-9.845
-9.855
-9.885
-9.88
-9.87
-9.845
-9.8
-9.75
-9.67
-9.62
-9.665
-9.75
-9.825
-9.9
-9.915
-9.995
-10.045
-10.01
-10.005
-9.885
-9.725
-9.79
-9.88
-9.93
-9.78
-9.64
-9.55
-9.545
-9.46
-9.375
-9.285
-9.25
-9.18
-9.1
-9.065
-9.05
-9.05
-9.075
-9.11
-9.16
-9.195
-9.245
-9.325
-9.43
-9.51
-9.58
-9.675
-9.725
-9.71
-9.67
-9.61
-9.525
-9.465
-9.48
-9.42
-9.435
-9.43
-9.42
-9.38
-9.305
-9.265
-9.23
-9.175
-9.075
-9.0
-8.885
-8.735
-8.4
-7.92
-7.325
-6.84
-6.55
-6.355
-6.23
-6.11
-5.99
-5.895
-5.855
-5.81
-5.84
-5.89
-5.91
-5.97
-6.045
-6.12
-6.23
-6.31
-6.47
-6.615
-6.61
-6.875
-6.98
-7.045
-7.065
-7.105
-7.185
-7.285
-7.43
-7.575
-7.675
-7.715
-7.645
-7.465
-7.29
-7.21
-7.26
-7.405
-7.765
-8.215
-8.715
-9.12
-9.37
-9.515
-9.62
-9.69
-9.755
-9.865
-9.99
-10.075
-10.05
-9.965
-9.895
-9.905
-9.925
-9.935
-9.905
-9.895
-9.875
-9.8
-9.705
-9.595
-9.495
-9.365
-9.285
-9.21
-9.06
-9.085
-9.115
-9.16
-9.09
-9.075
-9.06
-9.155
-9.225
-9.28
-9.25
-9.21
-9.165
-9.22
-9.22
-9.215
-9.205
-9.24
-9.31
-9.425
-9.56
-9.64
-9.645
-9.595
-9.535
-9.535
-9.51
-9.595
-9.595
-9.61
-9.635
-9.66
-9.65
-9.58
-9.555
-9.57
-9.645
-9.685
-9.73
-9.81
-9.855
-9.865
-9.905
-9.935
-9.975
-10.015
-10.03
-10.025
-9.965
-9.905
-9.825
-9.77
-9.72
-9.665
-9.55
-9.35
-9.21
-9.18
-9.165
-9.145
-9.115
-9.04
-9.04
-8.91
-8.9
-8.9
-8.865
-8.885
-8.935
-8.985
-9.02
-9.035
-9.05
-9.02
-8.985
-8.955
-8.92
-8.895
-8.845
-8.86
-8.86
-8.855
-8.805
-8.79
-8.785
-8.83
-8.835
-8.8
-8.775
-8.75
-8.73
-8.705
-8.705
-8.71
-8.725
-8.745
-8.76
-8.77
-8.75
-8.71
-8.705
-8.74
-8.82
-8.89
-8.94
-8.93
-8.95
-8.95
-8.915
-8.915
-8.93
-8.975
-8.965
-8.965
-8.945
-9.015
-9.04
-9.055
-9.03
-9.015
-9.0
-8.985
-8.99
-8.975
-9.01
-9.06
-9.08
-9.12
-9.165
-9.185
-9.165
-9.205
-9.23
-9.235
-9.225
-9.21
-9.22
-9.235
-9.245
-9.275
-9.32
-9.4
-9.425
-9.425
-9.46
-9.44
-9.45
-9.455
-9.46
-9.46
-9.455
-9.43
-9.455
-9.495
-9.52
-9.54
-9.515
-9.48
-9.445
-9.45
-9.47
-9.455
-9.45
-9.425
-9.38
-9.305
-9.285
-9.285
-9.325
-9.355
-9.335
-9.31
-9.31
-9.295
-9.295
-9.31
-9.335
-9.43
-9.475
-9.465
-9.425
-9.395
-9.34
-9.3
-9.28
-9.255
-9.225
-9.175
-9.195
-9.225
-9.26
-9.28
-9.285
-9.325
-9.31
-9.255
-9.21
-9.175
-9.165
-9.21
-9.23
-9.23
-9.23
-9.21
-9.2
-9.15
-9.145
-9.065
-9.03
-9.0
-8.965
-8.96
-8.955
-8.945
-8.98
-9.01
-9.045
-9.075
-9.08
-9.025
-8.905
-8.845
-8.865
-8.895
-8.935
-8.915
-8.915
-8.885
-8.815
-8.72
-8.585
-8.435
-8.345
-8.375
-8.415
-8.34
-8.135
-7.865
-7.565
-7.33
-7.18
-7.265
-7.59
-7.99
-8.47
-8.865
-9.115
-9.275
-9.38
-9.47
-9.495
-9.52
-9.525
-9.475
-9.375
-9.29
-9.195
-9.125
-9.065
-9.005
-8.965
-8.88
-8.8
-8.67
-8.475
-8.3
-8.155
-8.03
-8.0
-7.985
-8.015
-8.085
-8.15
-8.235
-8.285
-8.345
-8.455
-8.535
-8.49
-8.515
-8.48
-8.44
-8.45
-8.41
-8.38
-8.35
-8.34
-8.35
-8.375
-8.35
-8.365
-8.36
-8.435
-8.51
-8.6
-8.705
-8.815
-8.9
-8.96
-9.02
-9.055
-9.055
-9.055
-9.03
-9.035
-9.025
-9.02
-9.0
-8.965
-8.965
-8.94
-8.875
-8.795
-8.715
-8.73
-8.64
-8.595
-8.56
-8.56
-8.585
-8.63
-8.675
-8.68
-8.715
-8.735
-8.79
-8.825
-8.865
-8.92
-8.95
-8.95
-9.025
-9.025
-9.04
-9.055
-9.09
-9.13
-9.135
-9.175
-9.195
-9.19
-9.15
-9.14
-9.165
-9.175
-9.175
-9.14
-9.045
-9.05
-9.07
-9.06
-9.03
-9.005
-9.01
-9.005
-9.08
-9.165
-9.1
-9.055
-9.02
-9.06
-9.08
-9.1
-9.045
-8.995
-8.935
-8.875
-8.97
-8.955
-8.94
-8.97
-9.035
-9.09
-9.06
-9.015
-9.01
-9.065
-9.165
-9.26
-9.355
-9.41
-9.44
-9.48
-9.48
-9.445
-9.42
-9.42
-9.315
-9.26
-9.165
-9.165
-9.21
-9.265
-9.27
-9.285
-9.28
-9.235
-9.21
-9.175
-9.14
-9.2
-9.24
-9.285
-9.255
-9.195
-9.135
-9.09
-9.13
-9.135
-9.09
-9.055
-8.98
-8.93
-8.89
-8.84
-8.78
-8.655
-8.53
-8.405
-8.265
-8.115
-7.99
-8.02
-7.81
-7.65
-7.475
-7.36
-7.255
-7.095
-6.87
-6.52
-6.225
-6.015
-6.01
-6.025
-6.08
-6.19
-6.335
-6.525
-6.67
-6.8
-6.895
-6.96
-7.02
-7.09
-7.185
-7.29
-7.43
-7.565
-7.635
-7.68
-7.72
-7.735
-7.74
-7.725
-7.69
-7.69
-7.72
-7.755
-7.665
-7.605
-7.53
-7.505
-7.495
-7.51
-7.57
-7.64
-7.7
-7.73
-7.785
-7.795
-7.8
-7.84
-7.895
-7.99
-8.045
-8.055
-8.04
-8.075
-8.095
-8.12
-8.125
-8.195
-8.24
-8.31
-8.32
-8.315
-8.31
-8.365
-8.495
-8.61
-8.685
-8.74
-8.77
-8.775
-8.785
-8.745
-8.68
-8.575
-8.55
-8.545
-8.545
-8.53
-8.46
-8.375
-8.275
-8.04
-7.775
-7.515
-7.37
-7.415
-7.64
-7.985
-8.405
-8.835
-9.195
-9.45
-9.56
-9.635
-9.74
-9.84
-9.93
-10.045
-10.19
-10.24
-10.25
-10.24
-10.255
-10.225
-10.18
-10.155
-10.05
-9.995
-9.89
-9.745
-9.595
-9.465
-9.365
-9.28
-9.215
-9.17
-9.12
-9.105
-9.09
-9.09
-9.09
-9.115
-9.145
-9.125
-9.125
-9.135
-9.155
-9.155
-9.125
-9.065
-9.035
-9.04
-9.045
-9.03
-9.045
-9.005
-9.005
-8.98
-9.005
-9.0
-8.98
-8.98
-8.915
-8.885
-8.84
-8.835
-8.85
-8.885
-8.865
-8.865
-8.835
-8.85
-8.825
-8.83
-8.845
-8.855
-8.845
-8.82
-8.83
-8.8
-8.805
-8.81
-8.815
-8.79
-8.735
-8.705
-8.7
-8.695
-8.76
-8.775
-8.77
-8.745
-8.79
-8.82
-8.845
-8.73
-8.6
-8.645
-8.395
-8.36
-8.385
-8.4
-8.425
-8.435
-8.475
-8.485
-8.46
-8.46
-8.485
-8.495
-8.48
-8.46
-8.44
-8.435
-8.365
-8.3
-8.23
-8.165
-8.11
-8.06
-8.015
-8.01
-7.97
-7.955
-7.93
-7.935
-7.945
-7.955
-7.975
-8.005
-8.08
-8.145
-8.22
-8.19
-8.3
-8.35
-8.38
-8.405
-8.42
-8.44
-8.47
-8.49
-8.47
-8.485
-8.51
-8.475
-8.415
-8.375
-8.29
-8.21
-8.16
-8.065
-7.915
-7.73
-7.255
-6.57
-5.66
-4.935
-4.355
-3.95
-3.635
-3.4
-3.245
-3.22
-3.32
-3.5
-3.69
-3.755
-3.795
-3.78
-3.93
-4.05
-4.185
-4.31
-4.41
-4.485
-4.575
-4.67
-4.77
-4.85
-4.91
-5.005
-5.09
-5.21
-5.34
-5.495
-5.665
-5.815
-5.965
-6.15
-6.26
-6.35
-6.395
-6.45
-6.495
-6.575
-6.625
-6.65
-6.7
-6.775
-6.8
-6.83
-6.85
-6.865
-6.885
-6.85
-6.955
-6.99
-7.02
-7.07
-7.115
-7.165
-7.19
-7.215
-7.215
-7.235
-7.265
-7.325
-7.365
-7.385
-7.33
-7.23
-7.26
-7.36
-7.46
-7.58
-7.61
-7.525
-7.335
-7.2
-7.18
-7.315
-7.335
-7.365
-7.45
-7.535
-7.585
-7.595
-7.63
-7.545
-7.455
-7.465
-7.465
-7.57
-7.69
-7.775
-7.84
-7.915
-7.99
-8.035
-8.07
-8.115
-8.135
-8.17
-8.135
-8.165
-8.28
-8.485
-8.65
-8.695
-8.71
-8.7
-8.65
-8.58
-8.455
-8.4
-8.325
-8.27
-8.215
-8.24
-8.3
-8.255
-8.065
-7.745
-7.385
-6.92
-6.55
-6.56
-6.35
-6.545
-6.88
-7.28
-7.665
-7.915
-7.995
-7.995
-7.975
-7.95
-7.915
-7.855
-7.77
-7.725
-7.695
-7.695
-7.685
-7.715
-7.755
-7.845
-7.94
-8.04
-8.12
-8.175
-8.19
-8.175
-8.075
-7.965
-7.88
-7.825
-7.78
-7.74
-7.73
-7.72
-7.69
-7.645
-7.6
-7.57
-7.545
-7.575
-7.58
-7.6
-7.65
-7.665
-7.67
-7.705
-7.72
-7.725
-7.715
-7.76
-7.805
-7.87
-7.895
-7.915
-7.945
-8.015
-8.05
-8.075
-8.095
-8.105
-8.115
-8.095
-8.09
-8.085
-8.085
-8.135
-8.2
-8.25
-8.25
-8.245
-8.235
-8.24
-8.32
-8.375
-8.41
-8.435
-8.47
-8.46
-8.425
-8.435
-8.485
-8.56
-8.57
-8.6
-8.63
-8.645
-8.66
-8.685
-8.73
-8.765
-8.795
-8.83
-8.81
-8.78
-8.82
-8.825
-8.82
-8.795
-8.835
-8.88
-8.895
-8.92
-8.92
-8.94
-8.94
-8.95
-8.925
-8.92
-8.89
-8.89
-8.88
-8.88
-8.9
-8.94
-8.935
-8.92
-8.895
-8.845
-8.8
-8.79
-8.83
-8.855
-8.915
-8.98
-9.005
-9.05
-9.07
-9.085
-9.105
-9.125
-9.125
-9.115
-9.07
-9.025
-9.005
-8.995
-9.01
-9.04
-9.04
-9.025
-9.01
-8.985
-8.97
-8.965
-8.98
-8.98
-8.97
-8.995
-8.995
-9.02
-9.01
-9.0
-8.975
-8.97
-8.925
-8.86
-8.82
-8.75
-8.725
-8.71
-8.745
-8.75
-8.755
-8.745
-8.74
-8.725
-8.71
-8.695
-8.68
-8.635
-8.65
-8.675
-8.69
-8.74
-8.8
-8.855
-8.885
-8.81
-8.74
-8.735
-8.745
-8.7
-8.62
-8.57
-8.535
-8.5
-8.495
-8.55
-8.64
-8.69
-8.675
-8.62
-8.515
-8.505
-8.54
-8.57
-8.585
-8.61
-8.565
-8.5
-8.45
-8.415
-8.35
-8.285
-8.23
-8.165
-8.115
-8.06
-7.995
-7.915
-7.85
-7.82
-7.815
-7.795
-7.78
-7.775
-7.745
-7.765
-7.83
-7.925
-8.005
-8.07
-8.155
-8.21
-8.275
-8.32
-8.4
-8.445
-8.445
-8.46
-8.465
-8.45
-8.465
-8.43
-8.395
-8.335
-8.24
-8.12
-7.99
-7.55
-7.025
-6.425
-6.065
-5.795
-5.62
-5.46
-5.365
-5.325
-5.355
-5.485
-5.6
-5.595
-5.71
-5.725
-5.675
-5.625
-5.55
-5.41
-5.215
-5.06
-4.92
-4.8
-4.755
-4.66
-4.475
-4.25
-3.995
-3.775
-3.765
-3.94
-4.32
-4.875
-5.51
-6.08
-6.535
-6.875
-7.1
-7.305
-7.56
-7.765
-7.98
-8.15
-8.32
-8.405
-8.46
-8.495
-8.525
-8.46
-8.515
-8.5
-8.435
-8.395
-8.345
-8.265
-8.155
-8.01
-7.89
-7.78
-7.675
-7.595
-7.615
-7.72
-7.785
-7.785
-7.835
-7.835
-7.845
-7.83
-7.85
-7.835
-7.8
-7.775
-7.79
-7.845
-7.875
-7.89
-7.91
-7.89
-7.9
-7.92
-8.02
-8.125
-8.2
-8.18
-8.225
-8.2
-8.165
-8.185
-8.21
-8.25
-8.305
-8.445
-8.565
-8.68
-8.73
-8.79
-8.83
-8.79
-8.795
-8.85
-8.815
-8.81
-8.835
-8.9
-8.965
-8.985
-8.97
-8.94
-8.88
-8.78
-8.765
-8.81
-8.865
-8.89
-8.85
-8.805
-8.815
-8.71
-8.585
-8.645
-8.195
-8.06
-8.02
-8.095
-8.13
-8.14
-8.195
-8.15
-7.99
-7.755
-7.56
-7.405
-7.325
-7.18
-7.035
-6.88
-6.685
-6.535
-6.395
-6.23
-6.19
-6.175
-6.19
-6.24
-6.39
-6.605
-6.825
-7.06
-7.27
-7.46
-7.545
-7.6
-7.665
-7.77
-7.885
-7.83
-8.025
-8.0
-7.895
-7.805
-7.755
-7.7
-7.7
-7.725
-7.73
-7.71
-7.61
-7.54
-7.475
-7.545
-7.6
-7.59
-7.61
-7.61
-7.56
-7.495
-7.465
-7.44
-7.455
-7.49
-7.53
-7.615
-7.735
-7.78
-7.81
-7.81
-7.805
-7.83
-7.835
-7.885
-7.93
-7.895
-7.965
-7.96
-7.955
-8.015
-8.07
-8.105
-8.155
-8.16
-8.19
-8.205
-8.185
-8.2
-8.26
-8.325
-8.38
-8.435
-8.46
-8.475
-8.485
-8.49
-8.57
-8.645
-8.65
-8.635
-8.6
-8.62
-8.63
-8.605
-8.555
-8.535
-8.54
-8.57
-8.61
-8.61
-8.57
-8.55
-8.525
-8.545
-8.595
-8.6
-8.61
-8.61
-8.59
-8.58
-8.585
-8.615
-8.685
-8.755
-8.825
-8.825
-8.81
-8.81
-8.785
-8.78
-8.77
-8.76
-8.78
-8.825
-8.87
-8.89
-8.905
-8.93
-8.92
-8.93
-8.95
-8.98
-9.025
-9.035
-9.055
-9.04
-9.02
-9.01
-8.97
-8.965
-8.94
-8.925
-8.905
-8.895
-8.915
-8.945
-8.98
-8.99
-9.01
-8.98
-8.965
-8.93
-8.9
-8.92
-8.88
-8.895
-8.935
-8.965
-8.935
-8.845
-8.68
-8.51
-8.335
-8.19
-8.16
-8.15
-8.15
-8.035
-7.83
-7.565
-7.305
-7.135
-7.11
-7.275
-7.605
-8.06
-8.525
-9.005
-9.36
-9.56
-9.62
-9.665
-9.735
-9.82
-9.825
-9.835
-9.855
-9.85
-9.865
-9.875
-9.875
-9.795
-9.68
-9.57
-9.485
-9.37
-9.25
-9.175
-9.09
-9.03
-9.01
-9.0
-8.99
-8.91
-8.85
-8.805
-8.795
-8.72
-8.645
-8.66
-8.51
-8.46
-8.41
-8.35
-8.37
-8.425
-8.475
-8.505
-8.485
-8.435
-8.44
-8.39
-8.32
-8.3
-8.265
-8.22
-8.2
-8.175
-8.14
-8.11
-8.1
-8.085
-8.06
-8.015
-7.95
-7.865
-7.835
-7.77
-7.67
-7.59
-7.535
-7.48
-7.405
-7.205
-6.895
-7.07
-5.88
-5.375
-4.945
-4.515
-4.13
-3.73
-3.4
-3.065
-2.82
-2.685
-2.63
-2.605
-2.575
-2.585
-2.62
-2.645
-2.67
-2.63
-2.58
-2.55
-2.54
-2.56
-2.575
-2.635
-2.685
-2.765
-2.8
-2.845
-2.895
-2.98
-3.03
-3.08
-3.2
-3.37
-3.585
-3.465
-4.0
-4.215
-4.45
-4.625
-4.81
-4.955
-5.095
-5.225
-5.33
-5.455
-5.555
-5.625
-5.725
-5.81
-5.85
-5.885
-5.885
-5.91
-5.905
-5.905
-5.985
-6.085
-6.14
-6.115
-6.13
-6.12
-6.155
-6.175
-6.175
-6.21
-6.265
-6.275
-6.25
-6.305
-6.38
-6.35
-6.335
-6.285
-6.305
-6.26
-6.255
-6.255
-6.295
-6.315
-6.345
-6.32
-6.365
-6.39
-6.4
-6.265
-6.25
-6.3
-6.32
-6.355
-6.36
-6.38
-6.375
-6.395
-6.415
-6.53
-6.655
-6.805
-6.775
-6.745
-6.78
-6.935
-7.02
-7.065
-7.025
-7.02
-7.015
-7.0
-6.985
-6.945
-6.905
-6.925
-6.99
-7.065
-7.17
-7.25
-7.33
-7.4
-7.34
-7.285
-7.225
-7.07
-6.86
-6.655
-6.43
-6.185
-5.945
-5.82
-5.785
-5.76
-5.685
-5.565
-5.545
-5.605
-5.715
-5.825
-5.93
-6.03
-6.155
-6.275
-6.385
-6.435
-6.525
-6.485
-6.685
-6.74
-6.81
-6.785
-6.785
-6.77
-6.82
-6.835
-6.81
-6.745
-6.735
-6.725
-6.725
-6.66
-6.59
-6.54
-6.48
-6.43
-6.375
-6.315
-6.285
-6.27
-6.26
-6.315
-6.36
-6.405
-6.44
-6.495
-6.55
-6.6
-6.69
-6.765
-6.83
-6.865
-6.9
-6.91
-6.96
-6.975
-6.94
-6.795
-6.66
-6.55
-6.52
-6.51
-6.505
-6.465
-6.37
-6.18
-5.91
-5.615
-5.435
-5.455
-5.62
-5.96
-6.395
-6.83
-7.225
-7.53
-7.775
-7.91
-8.01
-8.155
-8.275
-8.45
-8.615
-8.75
-8.825
-8.83
-8.855
-8.89
-8.965
-8.92
-9.16
-9.225
-9.27
-9.275
-9.26
-9.19
-9.09
-8.965
-8.84
-8.775
-8.725
-8.69
-8.64
-8.655
-8.66
-8.655
-8.68
-8.68
-8.685
-8.65
-8.63
-8.59
-8.555
-8.52
-8.485
-8.485
-8.485
-8.46
-8.45
-8.495
-8.55
-8.58
-8.62
-8.66
-8.69
-8.67
-8.7
-8.715
-8.77
-8.83
-8.94
-9.04
-9.135
-9.21
-9.28
-9.37
-9.355
-9.365
-9.38
-9.39
-9.415
-9.43
-9.405
-9.415
-9.43
-9.44
-9.45
-9.425
-9.41
-9.39
-9.36
-9.34
-9.315
-9.28
-9.285
-9.305
-9.315
-9.32
-9.305
-9.28
-9.23
-9.225
-9.105
-9.055
-8.99
-9.02
-9.025
-9.005
-8.985
-8.91
-8.87
-8.85
-8.85
-8.835
-8.815
-8.785
-8.73
-8.655
-8.64
-8.675
-8.675
-8.62
-8.545
-8.5
-8.495
-8.435
-8.4
-8.425
-8.44
-8.42
-8.39
-8.385
-8.39
-8.415
-8.425
-8.415
-8.375
-8.385
-8.32
-8.32
-8.33
-8.285
-8.285
-8.235
-8.21
-8.215
-8.235
-8.25
-8.275
-8.355
-8.405
-8.44
-8.49
-8.56
-8.585
-8.555
-8.54
-8.48
-8.44
-8.39
-8.33
-8.28
-8.275
-8.24
-8.2
-8.175
-8.16
-8.135
-8.135
-8.14
-8.115
-8.0
-7.85
-7.915
-7.515
-7.315
-7.125
-6.935
-6.805
-6.72
-6.645
-6.585
-6.54
-6.465
-6.22
-5.91
-5.515
-5.12
-4.755
-4.375
-4.145
-3.99
-3.91
-3.935
-4.01
-4.075
-4.09
-4.09
-4.065
-4.03
-4.035
-4.055
-4.085
-4.065
-4.05
-4.06
-4.07
-4.135
-4.18
-4.18
-4.27
-4.33
-4.42
-4.475
-4.565
-4.65
-4.745
-4.81
-4.895
-4.955
-4.98
-5.0
-5.02
-5.01
-5.01
-5.005
-5.025
-5.045
-5.1
-5.19
-5.295
-5.385
-5.425
-5.5
-5.545
-5.615
-5.72
-5.84
-5.95
-6.005
-6.05
-6.075
-6.14
-6.195
-6.245
-6.215
-6.29
-6.31
-6.365
-6.42
-6.475
-6.555
-6.68
-6.7
-6.7
-6.705
-6.79
-6.805
-6.735
-6.84
-6.93
-6.99
-6.995
-7.0
-7.015
-7.005
-7.0
-6.97
-6.93
-6.94
-6.875
-6.785
-6.71
-6.7
-6.725
-6.695
-6.6
-6.415
-6.15
-5.945
-5.84
-5.78
-6.1
-6.435
-6.825
-7.27
-7.655
-7.905
-8.075
-8.155
-8.205
-8.285
-8.465
-8.61
-8.655
-8.51
-8.43
-8.365
-8.485
-8.675
-8.81
-8.85
-8.75
-8.63
-8.5
-8.435
-8.315
-8.125
-7.92
-7.7
-7.45
-7.175
-6.91
-6.67
-6.525
-6.505
-6.55
-6.5
-6.605
-6.63
-6.695
-6.805
-6.935
-7.06
-7.155
-7.225
-7.29
-7.37
-7.36
-7.34
-7.34
-7.33
-7.315
-7.315
-7.355
-7.385
-7.405
-7.44
-7.45
-7.405
-7.385
-7.355
-7.36
-7.38
-7.405
-7.425
-7.385
-7.335
